Energy (in eV), backscattering yield of material alox-reduced-PEY at incidence 0.0 degree
   X,       Y
0.0, 0.0
10.0, 0.0
20.0, 0.0
30.0, 0.0
40.0, 0.0
50.0, 0.0
60.0, 0.014364754
70.0, 0.026487797
80.0, 0.03696876
90.0, 0.046194557
100.0, 0.054429512
110.0, 0.061862223
120.0, 0.068632
130.0, 0.07484469
140.0, 0.08058262
150.0, 0.085911065
160.0, 0.09088267
170.0, 0.09554052
180.0, 0.09992032
190.0, 0.104051985
200.0, 0.10796085
210.0, 0.11166853
220.0, 0.11519366
230.0, 0.11855234
240.0, 0.12175869
250.0, 0.12482507
260.0, 0.12776235
270.0, 0.13058026
280.0, 0.13328739
290.0, 0.1358915
300.0, 0.13839948
310.0, 0.14081764
320.0, 0.14315163
330.0, 0.14540657
340.0, 0.14758721
350.0, 0.14969774
360.0, 0.15174216
370.0, 0.15372403
380.0, 0.15564665
390.0, 0.15751313
400.0, 0.15932626
410.0, 0.16108865
420.0, 0.16280274
430.0, 0.1644708
440.0, 0.16609493
450.0, 0.16767707
460.0, 0.16921908
470.0, 0.17072265
480.0, 0.17218943
490.0, 0.17362091
500.0, 0.1750185
510.0, 0.17638353
520.0, 0.17771727
530.0, 0.17902093
540.0, 0.18029557
550.0, 0.18154232
560.0, 0.18276215
570.0, 0.18395598
580.0, 0.18512478
590.0, 0.18626933
600.0, 0.18739049
610.0, 0.18848903
620.0, 0.18956566
630.0, 0.19062112
640.0, 0.19165602
650.0, 0.19267103
660.0, 0.19366677
670.0, 0.1946438
680.0, 0.19560267
690.0, 0.19654395
700.0, 0.19746812
710.0, 0.19837561
720.0, 0.199267
730.0, 0.20014267
740.0, 0.20100306
750.0, 0.20184855
760.0, 0.20267957
770.0, 0.20349653
780.0, 0.20429975
790.0, 0.20508958
800.0, 0.20586641
810.0, 0.20663051
820.0, 0.20738219
830.0, 0.20812182
840.0, 0.20884962
850.0, 0.20956591
860.0, 0.21027097
870.0, 0.21096504
880.0, 0.21164839
890.0, 0.21232122
900.0, 0.21298385
910.0, 0.21363644
920.0, 0.21427926
930.0, 0.21491249
940.0, 0.21553634
950.0, 0.21615103
960.0, 0.21675676
970.0, 0.2173537
980.0, 0.21794206
990.0, 0.21852197
1000.0, 0.21909365
1010.0, 0.21893007
1020.0, 0.21876681
1030.0, 0.21860388
1040.0, 0.21844128
1050.0, 0.21827899
1060.0, 0.21811704
1070.0, 0.21795541
1080.0, 0.2177941
1090.0, 0.21763311
1100.0, 0.21747245
1110.0, 0.21731211
1120.0, 0.21715209
1130.0, 0.21699238
1140.0, 0.216833
1150.0, 0.21667393
1160.0, 0.21651518
1170.0, 0.21635675
1180.0, 0.21619864
1190.0, 0.21604083
1200.0, 0.21588336
1210.0, 0.21572618
1220.0, 0.21556933
1230.0, 0.2154128
1240.0, 0.21525657
1250.0, 0.21510065
1260.0, 0.21494505
1270.0, 0.21478975
1280.0, 0.21463476
1290.0, 0.21448009
1300.0, 0.21432573
1310.0, 0.21417168
1320.0, 0.21401793
1330.0, 0.21386449
1340.0, 0.21371135
1350.0, 0.21355852
1360.0, 0.213406
1370.0, 0.21325378
1380.0, 0.21310186
1390.0, 0.21295026
1400.0, 0.21279894
1410.0, 0.21264794
1420.0, 0.21249723
1430.0, 0.21234684
1440.0, 0.21219672
1450.0, 0.21204692
1460.0, 0.21189742
1470.0, 0.21174821
1480.0, 0.21159932
1490.0, 0.21145071
1500.0, 0.2113024
1510.0, 0.21115437
1520.0, 0.21100666
1530.0, 0.21085924
1540.0, 0.2107121
1550.0, 0.21056527
1560.0, 0.21041872
1570.0, 0.21027248
1580.0, 0.21012652
1590.0, 0.20998085
1600.0, 0.20983547
1610.0, 0.20969039
1620.0, 0.2095456
1630.0, 0.20940109
1640.0, 0.20925687
1650.0, 0.20911294
1660.0, 0.20896931
1670.0, 0.20882595
1680.0, 0.20868288
1690.0, 0.2085401
1700.0, 0.2083976
1710.0, 0.2082554
1720.0, 0.20811346
1730.0, 0.20797183
1740.0, 0.20783046
1750.0, 0.20768937
1760.0, 0.20754859
1770.0, 0.20740807
1780.0, 0.20726784
1790.0, 0.20712788
1800.0, 0.2069882
1810.0, 0.2068488
1820.0, 0.20670968
1830.0, 0.20657085
1840.0, 0.20643228
1850.0, 0.206294
1860.0, 0.206156
1870.0, 0.20601825
1880.0, 0.2058808
1890.0, 0.20574363
1900.0, 0.20560671
1910.0, 0.20547007
1920.0, 0.20533371
1930.0, 0.20519762
1940.0, 0.20506181
1950.0, 0.20492625
1960.0, 0.20479098
1970.0, 0.20465598
1980.0, 0.20452124
1990.0, 0.20438677
2000.0, 0.20425257
2010.0, 0.20411864
2020.0, 0.20398498
2030.0, 0.20385158
2040.0, 0.20371845
2050.0, 0.2035856
2060.0, 0.203453
2070.0, 0.20332067
2080.0, 0.2031886
2090.0, 0.2030568
2100.0, 0.20292525
2110.0, 0.20279397
2120.0, 0.20266296
2130.0, 0.2025322
2140.0, 0.20240171
2150.0, 0.20227148
2160.0, 0.20214151
2170.0, 0.2020118
2180.0, 0.20188235
2190.0, 0.20175315
2200.0, 0.20162421
2210.0, 0.20149553
2220.0, 0.20136711
2230.0, 0.20123895
2240.0, 0.20111103
2250.0, 0.20098339
2260.0, 0.20085599
2270.0, 0.20072885
2280.0, 0.20060195
2290.0, 0.20047532
2300.0, 0.20034893
2310.0, 0.2002228
2320.0, 0.20009692
2330.0, 0.1999713
2340.0, 0.19984592
2350.0, 0.1997208
2360.0, 0.19959593
2370.0, 0.1994713
2380.0, 0.19934691
2390.0, 0.19922279
2400.0, 0.19909891
2410.0, 0.19897528
2420.0, 0.19885188
2430.0, 0.19872876
2440.0, 0.19860585
2450.0, 0.19848321
2460.0, 0.1983608
2470.0, 0.19823866
2480.0, 0.19811673
2490.0, 0.19799507
2500.0, 0.19787364
2510.0, 0.19775245
2520.0, 0.19763151
2530.0, 0.19751081
2540.0, 0.19739035
2550.0, 0.19727013
2560.0, 0.19715016
2570.0, 0.19703041
2580.0, 0.1969109
2590.0, 0.19679165
2600.0, 0.19667262
2610.0, 0.19655384
2620.0, 0.19643529
2630.0, 0.19631699
2640.0, 0.19619891
2650.0, 0.19608107
2660.0, 0.19596346
2670.0, 0.1958461
2680.0, 0.19572896
2690.0, 0.19561206
2700.0, 0.1954954
2710.0, 0.19537896
2720.0, 0.19526276
2730.0, 0.1951468
2740.0, 0.19503106
2750.0, 0.19491555
2760.0, 0.19480027
2770.0, 0.19468524
2780.0, 0.19457042
2790.0, 0.19445583
2800.0, 0.19434148
2810.0, 0.19422735
2820.0, 0.19411345
2830.0, 0.19399978
2840.0, 0.19388634
2850.0, 0.19377312
2860.0, 0.19366013
2870.0, 0.19354735
2880.0, 0.19343482
2890.0, 0.1933225
2900.0, 0.19321041
2910.0, 0.19309855
2920.0, 0.19298689
2930.0, 0.19287547
2940.0, 0.19276428
2950.0, 0.1926533
2960.0, 0.19254254
2970.0, 0.19243202
2980.0, 0.1923217
2990.0, 0.19221161
3000.0, 0.19210173
3010.0, 0.19199207
3020.0, 0.19188266
3030.0, 0.19177343
3040.0, 0.19166444
3050.0, 0.19155566
3060.0, 0.1914471
3070.0, 0.19133875
3080.0, 0.19123062
3090.0, 0.19112271
3100.0, 0.19101502
3110.0, 0.19090754
3120.0, 0.19080026
3130.0, 0.19069321
3140.0, 0.19058637
3150.0, 0.19047976
3160.0, 0.19037333
3170.0, 0.19026715
3180.0, 0.19016115
3190.0, 0.19005537
3200.0, 0.18994981
3210.0, 0.18984446
3220.0, 0.18973932
3230.0, 0.18963438
3240.0, 0.18952966
3250.0, 0.18942514
3260.0, 0.18932085
3270.0, 0.18921675
3280.0, 0.18911286
3290.0, 0.18900917
3300.0, 0.1889057
3310.0, 0.18880244
3320.0, 0.18869938
3330.0, 0.18859652
3340.0, 0.18849388
3350.0, 0.18839143
3360.0, 0.1882892
3370.0, 0.18818715
3380.0, 0.18808532
3390.0, 0.18798369
3400.0, 0.18788227
3410.0, 0.18778105
3420.0, 0.18768002
3430.0, 0.18757921
3440.0, 0.18747859
3450.0, 0.18737818
3460.0, 0.18727796
3470.0, 0.18717794
3480.0, 0.18707813
3490.0, 0.18697852
3500.0, 0.1868791
3510.0, 0.18677989
3520.0, 0.18668087
3530.0, 0.18658204
3540.0, 0.18648341
3550.0, 0.18638499
3560.0, 0.18628676
3570.0, 0.18618873
3580.0, 0.18609089
3590.0, 0.18599324
3600.0, 0.1858958
3610.0, 0.18579854
3620.0, 0.18570149
3630.0, 0.18560462
3640.0, 0.18550795
3650.0, 0.18541147
3660.0, 0.18531518
3670.0, 0.1852191
3680.0, 0.18512319
3690.0, 0.18502748
3700.0, 0.18493196
3710.0, 0.18483664
3720.0, 0.1847415
3730.0, 0.18464655
3740.0, 0.18455179
3750.0, 0.18445723
3760.0, 0.18436284
3770.0, 0.18426865
3780.0, 0.18417466
3790.0, 0.18408084
3800.0, 0.18398722
3810.0, 0.18389377
3820.0, 0.18380052
3830.0, 0.18370746
3840.0, 0.18361457
3850.0, 0.18352188
3860.0, 0.18342936
3870.0, 0.18333705
3880.0, 0.1832449
3890.0, 0.18315294
3900.0, 0.18306117
3910.0, 0.18296959
3920.0, 0.18287818
3930.0, 0.18278696
3940.0, 0.18269591
3950.0, 0.18260504
3960.0, 0.18251437
3970.0, 0.18242387
3980.0, 0.18233356
3990.0, 0.18224342
4000.0, 0.18215346
4010.0, 0.18206368
4020.0, 0.1819741
4030.0, 0.18188468
4040.0, 0.18179543
4050.0, 0.18170638
4060.0, 0.1816175
4070.0, 0.18152879
4080.0, 0.18144026
4090.0, 0.18135192
4100.0, 0.18126373
4110.0, 0.18117574
4120.0, 0.18108791
4130.0, 0.18100026
4140.0, 0.1809128
4150.0, 0.1808255
4160.0, 0.18073837
4170.0, 0.18065143
4180.0, 0.18056466
4190.0, 0.18047805
4200.0, 0.18039162
4210.0, 0.18030536
4220.0, 0.18021928
4230.0, 0.18013337
4240.0, 0.18004763
4250.0, 0.17996207
4260.0, 0.17987667
4270.0, 0.17979144
4280.0, 0.17970638
4290.0, 0.1796215
4300.0, 0.17953677
4310.0, 0.17945223
4320.0, 0.17936786
4330.0, 0.17928365
4340.0, 0.1791996
4350.0, 0.17911573
4360.0, 0.17903201
4370.0, 0.17894848
4380.0, 0.1788651
4390.0, 0.1787819
4400.0, 0.17869887
4410.0, 0.17861599
4420.0, 0.17853329
4430.0, 0.17845073
4440.0, 0.17836836
4450.0, 0.17828615
4460.0, 0.17820409
4470.0, 0.17812221
4480.0, 0.17804049
4490.0, 0.17795894
4500.0, 0.17787753
4510.0, 0.1777963
4520.0, 0.17771523
4530.0, 0.17763433
4540.0, 0.17755358
4550.0, 0.177473
4560.0, 0.17739257
4570.0, 0.1773123
4580.0, 0.1772322
4590.0, 0.17715226
4600.0, 0.17707248
4610.0, 0.17699285
4620.0, 0.17691338
4630.0, 0.17683408
4640.0, 0.17675494
4650.0, 0.17667595
4660.0, 0.1765971
4670.0, 0.17651844
4680.0, 0.17643991
4690.0, 0.17636156
4700.0, 0.17628336
4710.0, 0.1762053
4720.0, 0.17612742
4730.0, 0.17604968
4740.0, 0.1759721
4750.0, 0.17589468
4760.0, 0.1758174
4770.0, 0.17574029
4780.0, 0.17566332
4790.0, 0.1755865
4800.0, 0.17550986
4810.0, 0.17543335
4820.0, 0.17535701
4830.0, 0.17528081
4840.0, 0.17520477
4850.0, 0.17512888
4860.0, 0.17505313
4870.0, 0.17497754
4880.0, 0.17490211
4890.0, 0.17482682
4900.0, 0.17475168
4910.0, 0.17467669
4920.0, 0.17460185
4930.0, 0.17452717
4940.0, 0.17445263
4950.0, 0.17437825
4960.0, 0.174304
4970.0, 0.1742299
4980.0, 0.17415597
4990.0, 0.17408216
5000.0, 0.17400852
5010.0, 0.17393501
5020.0, 0.17386165
5030.0, 0.17378844
5040.0, 0.17371538
5050.0, 0.17364247
5060.0, 0.1735697
5070.0, 0.17349707
5080.0, 0.17342459
5090.0, 0.17335226
5100.0, 0.17328006
5110.0, 0.17320801
5120.0, 0.17313612
5130.0, 0.17306435
5140.0, 0.17299274
5150.0, 0.17292127
5160.0, 0.17284994
5170.0, 0.17277876
5180.0, 0.1727077
5190.0, 0.1726368
5200.0, 0.17256604
5210.0, 0.17249542
5220.0, 0.17242494
5230.0, 0.1723546
5240.0, 0.17228441
5250.0, 0.17221434
5260.0, 0.17214443
5270.0, 0.17207465
5280.0, 0.17200501
5290.0, 0.17193551
5300.0, 0.17186615
5310.0, 0.17179693
5320.0, 0.17172785
5330.0, 0.1716589
5340.0, 0.17159009
5350.0, 0.17152143
5360.0, 0.1714529
5370.0, 0.1713845
5380.0, 0.17131624
5390.0, 0.17124811
5400.0, 0.17118013
5410.0, 0.17111227
5420.0, 0.17104456
5430.0, 0.17097698
5440.0, 0.17090952
5450.0, 0.17084222
5460.0, 0.17077504
5470.0, 0.170708
5480.0, 0.1706411
5490.0, 0.17057432
5500.0, 0.17050768
5510.0, 0.17044117
5520.0, 0.1703748
5530.0, 0.17030856
5540.0, 0.17024244
5550.0, 0.17017646
5560.0, 0.17011061
5570.0, 0.1700449
5580.0, 0.16997932
5590.0, 0.16991387
5600.0, 0.16984855
5610.0, 0.16978335
5620.0, 0.1697183
5630.0, 0.16965337
5640.0, 0.16958857
5650.0, 0.1695239
5660.0, 0.16945936
5670.0, 0.16939494
5680.0, 0.16933066
5690.0, 0.1692665
5700.0, 0.16920248
5710.0, 0.16913857
5720.0, 0.1690748
5730.0, 0.16901116
5740.0, 0.16894764
5750.0, 0.16888425
5760.0, 0.16882098
5770.0, 0.16875784
5780.0, 0.16869484
5790.0, 0.16863194
5800.0, 0.16856919
5810.0, 0.16850655
5820.0, 0.16844404
5830.0, 0.16838166
5840.0, 0.1683194
5850.0, 0.16825727
5860.0, 0.16819525
5870.0, 0.16813336
5880.0, 0.1680716
5890.0, 0.16800997
5900.0, 0.16794844
5910.0, 0.16788705
5920.0, 0.16782577
5930.0, 0.16776463
5940.0, 0.1677036
5950.0, 0.1676427
5960.0, 0.16758192
5970.0, 0.16752125
5980.0, 0.16746071
5990.0, 0.16740029
6000.0, 0.16734
6010.0, 0.16727981
6020.0, 0.16721976
6030.0, 0.16715981
6040.0, 0.1671
6050.0, 0.1670403
6060.0, 0.16698071
6070.0, 0.16692126
6080.0, 0.16686192
6090.0, 0.16680269
6100.0, 0.16674359
6110.0, 0.1666846
6120.0, 0.16662574
6130.0, 0.16656698
6140.0, 0.16650835
6150.0, 0.16644983
6160.0, 0.16639143
6170.0, 0.16633314
6180.0, 0.16627498
6190.0, 0.16621692
6200.0, 0.16615899
6210.0, 0.16610117
6220.0, 0.16604348
6230.0, 0.16598588
6240.0, 0.16592841
6250.0, 0.16587105
6260.0, 0.1658138
6270.0, 0.16575667
6280.0, 0.16569966
6290.0, 0.16564275
6300.0, 0.16558598
6310.0, 0.1655293
6320.0, 0.16547273
6330.0, 0.16541629
6340.0, 0.16535996
6350.0, 0.16530374
6360.0, 0.16524762
6370.0, 0.16519162
6380.0, 0.16513574
6390.0, 0.16507997
6400.0, 0.1650243
6410.0, 0.16496874
6420.0, 0.16491331
6430.0, 0.16485798
6440.0, 0.16480276
6450.0, 0.16474766
6460.0, 0.16469266
6470.0, 0.16463776
6480.0, 0.16458298
6490.0, 0.16452831
6500.0, 0.16447374
6510.0, 0.1644193
6520.0, 0.16436495
6530.0, 0.16431072
6540.0, 0.16425659
6550.0, 0.16420257
6560.0, 0.16414866
6570.0, 0.16409487
6580.0, 0.16404116
6590.0, 0.16398758
6600.0, 0.1639341
6610.0, 0.16388072
6620.0, 0.16382746
6630.0, 0.1637743
6640.0, 0.16372125
6650.0, 0.16366829
6660.0, 0.16361545
6670.0, 0.16356272
6680.0, 0.16351008
6690.0, 0.16345756
6700.0, 0.16340514
6710.0, 0.16335282
6720.0, 0.1633006
6730.0, 0.1632485
6740.0, 0.16319649
6750.0, 0.1631446
6760.0, 0.1630928
6770.0, 0.16304111
6780.0, 0.16298951
6790.0, 0.16293803
6800.0, 0.16288665
6810.0, 0.16283537
6820.0, 0.16278419
6830.0, 0.16273311
6840.0, 0.16268215
6850.0, 0.16263127
6860.0, 0.16258049
6870.0, 0.16252983
6880.0, 0.16247925
6890.0, 0.1624288
6900.0, 0.16237843
6910.0, 0.16232815
6920.0, 0.162278
6930.0, 0.16222793
6940.0, 0.16217797
6950.0, 0.1621281
6960.0, 0.16207834
6970.0, 0.16202867
6980.0, 0.16197911
6990.0, 0.16192964
7000.0, 0.16188027
7010.0, 0.16183099
7020.0, 0.16178182
7030.0, 0.16173275
7040.0, 0.16168378
7050.0, 0.16163489
7060.0, 0.16158612
7070.0, 0.16153744
7080.0, 0.16148885
7090.0, 0.16144036
7100.0, 0.16139197
7110.0, 0.16134368
7120.0, 0.16129547
7130.0, 0.16124737
7140.0, 0.16119938
7150.0, 0.16115147
7160.0, 0.16110365
7170.0, 0.16105594
7180.0, 0.16100831
7190.0, 0.16096078
7200.0, 0.16091335
7210.0, 0.160866
7220.0, 0.16081877
7230.0, 0.16077161
7240.0, 0.16072457
7250.0, 0.1606776
7260.0, 0.16063073
7270.0, 0.16058396
7280.0, 0.16053727
7290.0, 0.16049069
7300.0, 0.1604442
7310.0, 0.1603978
7320.0, 0.16035149
7330.0, 0.16030528
7340.0, 0.16025916
7350.0, 0.16021311
7360.0, 0.16016717
7370.0, 0.16012134
7380.0, 0.16007558
7390.0, 0.16002992
7400.0, 0.15998434
7410.0, 0.15993886
7420.0, 0.15989347
7430.0, 0.15984817
7440.0, 0.15980296
7450.0, 0.15975784
7460.0, 0.1597128
7470.0, 0.15966786
7480.0, 0.15962301
7490.0, 0.15957826
7500.0, 0.15953359
7510.0, 0.159489
7520.0, 0.15944451
7530.0, 0.1594001
7540.0, 0.15935579
7550.0, 0.15931156
7560.0, 0.15926743
7570.0, 0.15922338
7580.0, 0.15917942
7590.0, 0.15913555
7600.0, 0.15909176
7610.0, 0.15904807
7620.0, 0.15900445
7630.0, 0.15896092
7640.0, 0.15891749
7650.0, 0.15887414
7660.0, 0.15883087
7670.0, 0.1587877
7680.0, 0.1587446
7690.0, 0.1587016
7700.0, 0.15865868
7710.0, 0.15861584
7720.0, 0.1585731
7730.0, 0.15853044
7740.0, 0.15848786
7750.0, 0.15844537
7760.0, 0.15840296
7770.0, 0.15836065
7780.0, 0.1583184
7790.0, 0.15827624
7800.0, 0.15823418
7810.0, 0.15819219
7820.0, 0.15815029
7830.0, 0.15810847
7840.0, 0.15806673
7850.0, 0.15802509
7860.0, 0.15798353
7870.0, 0.15794204
7880.0, 0.15790063
7890.0, 0.15785931
7900.0, 0.15781808
7910.0, 0.15777692
7920.0, 0.15773585
7930.0, 0.15769486
7940.0, 0.15765396
7950.0, 0.15761313
7960.0, 0.15757239
7970.0, 0.15753172
7980.0, 0.15749115
7990.0, 0.15745065
8000.0, 0.15741022
8010.0, 0.15736988
8020.0, 0.15732962
8030.0, 0.15728945
8040.0, 0.15724935
8050.0, 0.15720934
8060.0, 0.15716939
8070.0, 0.15712954
8080.0, 0.15708975
8090.0, 0.15705006
8100.0, 0.15701044
8110.0, 0.1569709
8120.0, 0.15693145
8130.0, 0.15689206
8140.0, 0.15685275
8150.0, 0.15681353
8160.0, 0.15677439
8170.0, 0.15673532
8180.0, 0.15669632
8190.0, 0.15665741
8200.0, 0.15661858
8210.0, 0.15657982
8220.0, 0.15654114
8230.0, 0.15650253
8240.0, 0.15646401
8250.0, 0.15642557
8260.0, 0.1563872
8270.0, 0.1563489
8280.0, 0.15631068
8290.0, 0.15627253
8300.0, 0.15623447
8310.0, 0.15619648
8320.0, 0.15615857
8330.0, 0.15612073
8340.0, 0.15608296
8350.0, 0.15604527
8360.0, 0.15600766
8370.0, 0.15597013
8380.0, 0.15593266
8390.0, 0.15589528
8400.0, 0.15585797
8410.0, 0.15582073
8420.0, 0.15578356
8430.0, 0.15574647
8440.0, 0.15570946
8450.0, 0.15567252
8460.0, 0.15563565
8470.0, 0.15559886
8480.0, 0.15556215
8490.0, 0.15552549
8500.0, 0.15548892
8510.0, 0.15545242
8520.0, 0.155416
8530.0, 0.15537964
8540.0, 0.15534335
8550.0, 0.15530714
8560.0, 0.15527101
8570.0, 0.15523495
8580.0, 0.15519896
8590.0, 0.15516303
8600.0, 0.15512718
8610.0, 0.1550914
8620.0, 0.1550557
8630.0, 0.15502007
8640.0, 0.1549845
8650.0, 0.15494901
8660.0, 0.15491359
8670.0, 0.15487824
8680.0, 0.15484296
8690.0, 0.15480775
8700.0, 0.15477261
8710.0, 0.15473755
8720.0, 0.15470254
8730.0, 0.15466762
8740.0, 0.15463275
8750.0, 0.15459797
8760.0, 0.15456325
8770.0, 0.15452859
8780.0, 0.15449402
8790.0, 0.1544595
8800.0, 0.15442505
8810.0, 0.15439068
8820.0, 0.15435638
8830.0, 0.15432213
8840.0, 0.15428796
8850.0, 0.15425387
8860.0, 0.15421984
8870.0, 0.15418588
8880.0, 0.15415198
8890.0, 0.15411815
8900.0, 0.15408438
8910.0, 0.1540507
8920.0, 0.15401706
8930.0, 0.1539835
8940.0, 0.15395
8950.0, 0.15391658
8960.0, 0.15388323
8970.0, 0.15384993
8980.0, 0.15381671
8990.0, 0.15378354
9000.0, 0.15375046
9010.0, 0.15371743
9020.0, 0.15368447
9030.0, 0.15365158
9040.0, 0.15361875
9050.0, 0.15358599
9060.0, 0.15355329
9070.0, 0.15352066
9080.0, 0.15348808
9090.0, 0.15345559
9100.0, 0.15342315
9110.0, 0.15339078
9120.0, 0.15335846
9130.0, 0.15332623
9140.0, 0.15329404
9150.0, 0.15326193
9160.0, 0.15322988
9170.0, 0.15319788
9180.0, 0.15316597
9190.0, 0.15313411
9200.0, 0.15310231
9210.0, 0.15307058
9220.0, 0.15303892
9230.0, 0.15300731
9240.0, 0.15297577
9250.0, 0.15294428
9260.0, 0.15291287
9270.0, 0.15288152
9280.0, 0.15285023
9290.0, 0.152819
9300.0, 0.15278783
9310.0, 0.15275674
9320.0, 0.15272568
9330.0, 0.1526947
9340.0, 0.1526638
9350.0, 0.15263294
9360.0, 0.15260214
9370.0, 0.15257141
9380.0, 0.15254074
9390.0, 0.15251014
9400.0, 0.15247957
9410.0, 0.15244909
9420.0, 0.15241867
9430.0, 0.1523883
9440.0, 0.152358
9450.0, 0.15232775
9460.0, 0.15229757
9470.0, 0.15226744
9480.0, 0.15223739
9490.0, 0.15220737
9500.0, 0.15217744
9510.0, 0.15214755
9520.0, 0.15211773
9530.0, 0.15208796
9540.0, 0.15205826
9550.0, 0.1520286
9560.0, 0.15199903
9570.0, 0.15196949
9580.0, 0.15194003
9590.0, 0.15191062
9600.0, 0.15188126
9610.0, 0.15185198
9620.0, 0.15182275
9630.0, 0.15179357
9640.0, 0.15176445
9650.0, 0.1517354
9660.0, 0.15170638
9670.0, 0.15167744
9680.0, 0.15164857
9690.0, 0.15161973
9700.0, 0.15159096
9710.0, 0.15156226
9720.0, 0.1515336
9730.0, 0.15150501
9740.0, 0.15147646
9750.0, 0.15144798
9760.0, 0.15141955
9770.0, 0.15139118
9780.0, 0.15136287
9790.0, 0.15133461
9800.0, 0.1513064
9810.0, 0.15127827
9820.0, 0.15125018
9830.0, 0.15122215
9840.0, 0.15119417
9850.0, 0.15116626
9860.0, 0.1511384
9870.0, 0.15111059
9880.0, 0.15108283
9890.0, 0.15105514
9900.0, 0.1510275
9910.0, 0.1509999
9920.0, 0.15097238
9930.0, 0.1509449
9940.0, 0.15091749
9950.0, 0.15089011
9960.0, 0.1508628
9970.0, 0.15083554
9980.0, 0.15080833
9990.0, 0.1507812
10000.0, 0.1507541
10010.0, 0.15072706
10020.0, 0.15070008
10030.0, 0.15067314
10040.0, 0.15064627
10050.0, 0.15061943
10060.0, 0.15059267
10070.0, 0.15056595
10080.0, 0.15053928
10090.0, 0.15051268
10100.0, 0.15048611
10110.0, 0.15045962
10120.0, 0.15043317
10130.0, 0.15040676
10140.0, 0.15038042
10150.0, 0.15035412
10160.0, 0.15032788
10170.0, 0.1503017
10180.0, 0.15027556
10190.0, 0.15024947
10200.0, 0.15022345
10210.0, 0.15019746
10220.0, 0.15017153
10230.0, 0.15014566
10240.0, 0.15011983
10250.0, 0.15009406
10260.0, 0.15006834
10270.0, 0.15004267
10280.0, 0.15001705
10290.0, 0.14999148
10300.0, 0.14996597
10310.0, 0.1499405
10320.0, 0.14991508
10330.0, 0.14988972
10340.0, 0.1498644
10350.0, 0.14983915
10360.0, 0.14981394
10370.0, 0.14978878
10380.0, 0.14976366
10390.0, 0.14973861
10400.0, 0.14971359
10410.0, 0.14968863
10420.0, 0.14966372
10430.0, 0.14963886
10440.0, 0.14961405
10450.0, 0.14958929
10460.0, 0.14956456
10470.0, 0.1495399
10480.0, 0.1495153
10490.0, 0.14949073
10500.0, 0.14946622
10510.0, 0.14944175
10520.0, 0.14941733
10530.0, 0.14939296
10540.0, 0.14936864
10550.0, 0.14934437
10560.0, 0.14932014
10570.0, 0.14929597
10580.0, 0.14927185
10590.0, 0.14924777
