Energy (in eV), SEEP yield of material CFRP-NASCAP at incidence 0.0 degree
   X,       Y
0.0, 0.0
200.0, 0.1857921
400.0, 0.2623616
600.0, 0.3208521
800.0, 0.3699424
1000.0, 0.41299996
1200.0, 0.45175454
1400.0, 0.4872351
1600.0, 0.5201136
1800.0, 0.5508573
2000.0, 0.5798068
2200.0, 0.6072201
2400.0, 0.6332976
2600.0, 0.6581989
2800.0, 0.682054
3000.0, 0.70496976
3200.0, 0.7270359
3400.0, 0.74832857
3600.0, 0.76891255
3800.0, 0.7888443
4000.0, 0.80817264
4200.0, 0.8269406
4400.0, 0.8451864
4600.0, 0.8629437
4800.0, 0.88024265
5000.0, 0.89711046
5200.0, 0.9135716
5400.0, 0.9296484
5600.0, 0.94536084
5800.0, 0.9607277
6000.0, 0.97576547
6200.0, 0.9904901
6400.0, 1.0049155
6600.0, 1.019055
6800.0, 1.0329212
7000.0, 1.046525
7200.0, 1.0598773
7400.0, 1.0729879
7600.0, 1.085866
7800.0, 1.0985202
8000.0, 1.1109587
8200.0, 1.123189
8400.0, 1.1352185
8600.0, 1.1470537
8800.0, 1.158701
9000.0, 1.1701666
9200.0, 1.1814562
9400.0, 1.192575
9600.0, 1.2035283
9800.0, 1.2143208
10000.0, 1.2249573
10200.0, 1.235442
10400.0, 1.2457795
10600.0, 1.2559736
10800.0, 1.2660279
11000.0, 1.2759464
11200.0, 1.2857325
11400.0, 1.2953892
11600.0, 1.3049202
11800.0, 1.3143284
12000.0, 1.3236166
12200.0, 1.3327879
12400.0, 1.3418449
12600.0, 1.3507901
12800.0, 1.359626
13000.0, 1.3683553
13200.0, 1.3769802
13400.0, 1.3855028
13600.0, 1.3939255
13800.0, 1.4022504
14000.0, 1.4104791
14200.0, 1.4186143
14400.0, 1.4266571
14600.0, 1.4346098
14800.0, 1.442474
15000.0, 1.4502515
15200.0, 1.4579439
15400.0, 1.4655528
15600.0, 1.4730797
15800.0, 1.4805264
16000.0, 1.4878939
16200.0, 1.495184
16400.0, 1.502398
16600.0, 1.509537
16800.0, 1.5166028
17000.0, 1.5235959
17200.0, 1.5305182
17400.0, 1.5373707
17600.0, 1.5441543
17800.0, 1.5508708
18000.0, 1.5575205
18200.0, 1.5641048
18400.0, 1.570625
18600.0, 1.5770818
18800.0, 1.5834761
19000.0, 1.5898094
19200.0, 1.5960821
19400.0, 1.6022952
19600.0, 1.6084498
19800.0, 1.6145465
20000.0, 1.6205866
20200.0, 1.6265707
20400.0, 1.6324992
20600.0, 1.6383737
20800.0, 1.6441944
21000.0, 1.6499621
21200.0, 1.6556778
21400.0, 1.6613421
21600.0, 1.6669557
21800.0, 1.6725191
22000.0, 1.6780335
22200.0, 1.683499
22400.0, 1.6889164
22600.0, 1.694287
22800.0, 1.6996102
23000.0, 1.7048879
23200.0, 1.7101194
23400.0, 1.7153062
23600.0, 1.7204487
23800.0, 1.7255476
24000.0, 1.7306027
24200.0, 1.7356155
24400.0, 1.7405862
24600.0, 1.7455151
24800.0, 1.7504029
25000.0, 1.7552499
25200.0, 1.7600569
25400.0, 1.7648243
25600.0, 1.7695521
25800.0, 1.7742416
26000.0, 1.7788925
26200.0, 1.7835058
26400.0, 1.7880819
26600.0, 1.7926207
26800.0, 1.7971231
27000.0, 1.8015893
27200.0, 1.80602
27400.0, 1.8104154
27600.0, 1.8147757
27800.0, 1.8191015
28000.0, 1.8233932
28200.0, 1.8276513
28400.0, 1.8318759
28600.0, 1.8360676
28800.0, 1.8402265
29000.0, 1.8443532
29200.0, 1.848448
29400.0, 1.8525109
29600.0, 1.8565428
29800.0, 1.8605436
30000.0, 1.8645139
30200.0, 1.8684539
30400.0, 1.8723638
30600.0, 1.8762438
30800.0, 1.8800949
31000.0, 1.8839167
31200.0, 1.8877097
31400.0, 1.8914745
31600.0, 1.8952105
31800.0, 1.898919
32000.0, 1.9025998
32200.0, 1.9062535
32400.0, 1.9098796
32600.0, 1.9134792
32800.0, 1.917052
33000.0, 1.9205987
33200.0, 1.9241196
33400.0, 1.927614
33600.0, 1.9310832
33800.0, 1.9345274
34000.0, 1.9379461
34200.0, 1.9413402
34400.0, 1.9447097
34600.0, 1.9480548
34800.0, 1.9513756
35000.0, 1.9546727
35200.0, 1.957946
35400.0, 1.961196
35600.0, 1.9644226
35800.0, 1.9676261
36000.0, 1.970807
36200.0, 1.973965
36400.0, 1.9771007
36600.0, 1.9802142
36800.0, 1.9833059
37000.0, 1.9863755
37200.0, 1.9894235
37400.0, 1.9924501
37600.0, 1.9954556
37800.0, 1.99844
38000.0, 2.0014036
38200.0, 2.0043461
38400.0, 2.0072684
38600.0, 2.0101705
38800.0, 2.0130522
39000.0, 2.015914
39200.0, 2.0187562
39400.0, 2.0215783
39600.0, 2.0243812
39800.0, 2.0271647
40000.0, 2.0299294
40200.0, 2.0326746
40400.0, 2.0354013
40600.0, 2.0381093
40800.0, 2.0407987
41000.0, 2.0434697
41200.0, 2.0461223
41400.0, 2.0487573
41600.0, 2.0513742
41800.0, 2.0539737
42000.0, 2.056555
42200.0, 2.0591187
42400.0, 2.0616658
42600.0, 2.0641954
42800.0, 2.0667076
43000.0, 2.0692034
43200.0, 2.0716822
43400.0, 2.0741441
43600.0, 2.0765898
43800.0, 2.079019
44000.0, 2.0814319
44200.0, 2.083829
44400.0, 2.0862098
44600.0, 2.0885746
44800.0, 2.090924
45000.0, 2.0932577
45200.0, 2.095576
45400.0, 2.0978787
45600.0, 2.1001658
45800.0, 2.1024382
46000.0, 2.1046956
46200.0, 2.106938
46400.0, 2.1091654
46600.0, 2.1113782
46800.0, 2.1135767
47000.0, 2.1157603
47200.0, 2.11793
47400.0, 2.120085
47600.0, 2.1222262
47800.0, 2.124353
48000.0, 2.1264663
48200.0, 2.1285653
48400.0, 2.130651
48600.0, 2.1327229
48800.0, 2.1347811
49000.0, 2.136826
49200.0, 2.1388574
49400.0, 2.140876
49600.0, 2.1428812
49800.0, 2.1448734
50000.0, 2.1468525
50200.0, 2.148819
50400.0, 2.1507726
50600.0, 2.1527135
50800.0, 2.1546419
51000.0, 2.1565578
51200.0, 2.158461
51400.0, 2.1603522
51600.0, 2.1622312
51800.0, 2.164098
52000.0, 2.165953
52200.0, 2.1677954
52400.0, 2.1696267
52600.0, 2.1714456
52800.0, 2.1732533
53000.0, 2.1750488
53200.0, 2.1768332
53400.0, 2.1786056
53600.0, 2.1803672
53800.0, 2.1821175
54000.0, 2.1838562
54200.0, 2.1855838
54400.0, 2.1873002
54600.0, 2.1890056
54800.0, 2.1907003
55000.0, 2.1923845
55200.0, 2.1940575
55400.0, 2.1957197
55600.0, 2.1973712
55800.0, 2.1990123
56000.0, 2.2006428
56200.0, 2.202263
56400.0, 2.2038732
56600.0, 2.2054727
56800.0, 2.2070618
57000.0, 2.208641
57200.0, 2.21021
57400.0, 2.2117693
57600.0, 2.2133183
57800.0, 2.2148578
58000.0, 2.216387
58200.0, 2.2179067
58400.0, 2.2194169
58600.0, 2.2209175
58800.0, 2.222408
59000.0, 2.2238898
59200.0, 2.2253616
59400.0, 2.226824
59600.0, 2.228277
59800.0, 2.2297213
60000.0, 2.231156
60200.0, 2.2325819
60400.0, 2.2339983
60600.0, 2.235406
60800.0, 2.2368047
61000.0, 2.2381942
61200.0, 2.2395751
61400.0, 2.2409472
61600.0, 2.2423108
61800.0, 2.2436655
62000.0, 2.2450116
62200.0, 2.246349
62400.0, 2.2476778
62600.0, 2.2489984
62800.0, 2.2503107
63000.0, 2.2516143
63200.0, 2.25291
63400.0, 2.2541974
63600.0, 2.2554762
63800.0, 2.256747
64000.0, 2.25801
64200.0, 2.2592647
64400.0, 2.2605116
64600.0, 2.2617505
64800.0, 2.2629812
65000.0, 2.2642045
65200.0, 2.2654195
65400.0, 2.266627
65600.0, 2.2678273
65800.0, 2.2690194
66000.0, 2.2702038
66200.0, 2.271381
66400.0, 2.2725503
66600.0, 2.2737124
66800.0, 2.274867
67000.0, 2.2760143
67200.0, 2.2771542
67400.0, 2.278287
67600.0, 2.279412
67800.0, 2.2805302
68000.0, 2.2816412
68200.0, 2.2827454
68400.0, 2.2838418
68600.0, 2.2849317
68800.0, 2.2860146
69000.0, 2.2870903
69200.0, 2.2881591
69400.0, 2.2892215
69600.0, 2.2902765
69800.0, 2.2913249
70000.0, 2.2923667
70200.0, 2.2934017
70400.0, 2.29443
70600.0, 2.2954519
70800.0, 2.296467
71000.0, 2.2974756
71200.0, 2.2984776
71400.0, 2.2994733
71600.0, 2.3004625
71800.0, 2.3014452
72000.0, 2.3024213
72200.0, 2.3033917
72400.0, 2.3043554
72600.0, 2.3053129
72800.0, 2.3062644
73000.0, 2.3072095
73200.0, 2.3081486
73400.0, 2.3090816
73600.0, 2.3100085
73800.0, 2.3109293
74000.0, 2.3118439
74200.0, 2.312753
74400.0, 2.3136556
74600.0, 2.3145525
74800.0, 2.3154438
75000.0, 2.316329
75200.0, 2.3172085
75400.0, 2.3180823
75600.0, 2.3189502
75800.0, 2.3198128
76000.0, 2.3206694
76200.0, 2.3215203
76400.0, 2.322366
76600.0, 2.3232057
76800.0, 2.3240402
77000.0, 2.3248687
77200.0, 2.3256922
77400.0, 2.32651
77600.0, 2.3273225
77800.0, 2.3281295
78000.0, 2.328931
78200.0, 2.3297276
78400.0, 2.3305185
78600.0, 2.3313046
78800.0, 2.332085
79000.0, 2.3328602
79200.0, 2.3336303
79400.0, 2.3343954
79600.0, 2.3351552
79800.0, 2.3359098
80000.0, 2.3366594
80200.0, 2.3374045
80400.0, 2.338144
80600.0, 2.3388786
80800.0, 2.3396082
81000.0, 2.340333
81200.0, 2.341053
81400.0, 2.3417683
81600.0, 2.3424783
81800.0, 2.3431833
82000.0, 2.343884
82200.0, 2.34458
82400.0, 2.3452709
82600.0, 2.3459573
82800.0, 2.3466387
83000.0, 2.3473155
83200.0, 2.347988
83400.0, 2.3486555
83600.0, 2.349319
83800.0, 2.3499773
84000.0, 2.3506312
84200.0, 2.3512805
84400.0, 2.3519256
84600.0, 2.352566
84800.0, 2.3532019
85000.0, 2.3538332
85200.0, 2.3544605
85400.0, 2.3550835
85600.0, 2.355702
85800.0, 2.356316
86000.0, 2.3569257
86200.0, 2.357531
86400.0, 2.3581324
86600.0, 2.3587291
86800.0, 2.359322
87000.0, 2.3599107
87200.0, 2.3604953
87400.0, 2.3610754
87600.0, 2.3616514
87800.0, 2.3622239
88000.0, 2.3627915
88200.0, 2.3633556
88400.0, 2.3639152
88600.0, 2.364471
88800.0, 2.365023
89000.0, 2.3655705
89200.0, 2.3661144
89400.0, 2.3666544
89600.0, 2.3671904
89800.0, 2.3677227
90000.0, 2.3682504
90200.0, 2.368775
90400.0, 2.3692956
90600.0, 2.3698123
90800.0, 2.3703253
91000.0, 2.370834
91200.0, 2.3713396
91400.0, 2.3718414
91600.0, 2.3723392
91800.0, 2.3728333
92000.0, 2.373324
92200.0, 2.3738105
92400.0, 2.374294
92600.0, 2.3747735
92800.0, 2.3752491
93000.0, 2.3757215
93200.0, 2.3761907
93400.0, 2.3766558
93600.0, 2.3771174
93800.0, 2.3775754
94000.0, 2.3780303
94200.0, 2.3784814
94400.0, 2.3789294
94600.0, 2.3793736
94800.0, 2.3798144
95000.0, 2.380252
95200.0, 2.3806858
95400.0, 2.3811166
95600.0, 2.3815436
95800.0, 2.3819678
96000.0, 2.3823884
96200.0, 2.3828056
96400.0, 2.38322
96600.0, 2.3836305
96800.0, 2.3840382
97000.0, 2.3844423
97200.0, 2.3848436
97400.0, 2.3852413
97600.0, 2.3856359
97800.0, 2.386027
98000.0, 2.3864155
98200.0, 2.3868005
98400.0, 2.3871827
98600.0, 2.3875616
98800.0, 2.3879373
99000.0, 2.3883097
99200.0, 2.3886795
99400.0, 2.389046
99600.0, 2.3894095
99800.0, 2.38977
100000.0, 2.3901274
