Energy (in eV), SEEP yield of material CERS-withBUCT at incidence 90.0 degree
   X,       Y
0.0, 0.0
200.0, 2.0903788
400.0, 4.2195373
600.0, 6.712387
800.0, 8.935476
1000.0, 10.646952
1200.0, 13.109695
1400.0, 15.719833
1600.0, 17.63023
1800.0, 19.573242
2000.0, 21.551231
2200.0, 24.547451
2400.0, 26.641594
2600.0, 28.771204
2800.0, 30.936516
3000.0, 33.13752
3200.0, 35.374065
3400.0, 37.645893
3600.0, 39.95266
3800.0, 41.01234
4000.0, 43.355614
4200.0, 45.733448
4400.0, 48.14532
4600.0, 50.590702
4800.0, 53.06908
5000.0, 54.1173
5200.0, 56.63243
5400.0, 59.17964
5600.0, 61.758392
5800.0, 62.798237
6000.0, 65.4131
6200.0, 68.05853
6400.0, 70.73401
6600.0, 71.77001
6800.0, 74.48053
7000.0, 77.22012
7200.0, 78.24946
7400.0, 81.02335
7600.0, 83.82538
7800.0, 84.849754
8000.0, 87.68526
8200.0, 90.547935
8400.0, 91.56864
8600.0, 94.46395
8800.0, 95.47601
9000.0, 98.40357
9200.0, 101.356926
9400.0, 102.36711
9600.0, 105.35181
9800.0, 106.35479
10000.0, 109.37041
10200.0, 112.410545
10400.0, 113.41283
10600.0, 116.48301
10800.0, 117.47913
11000.0, 120.57895
11200.0, 121.56928
11400.0, 124.698265
11600.0, 127.85018
11800.0, 128.84099
12000.0, 132.02124
12200.0, 133.00696
12400.0, 136.21513
12600.0, 137.19606
12800.0, 140.43173
13000.0, 141.40813
13200.0, 144.67093
13400.0, 145.643
13600.0, 148.9325
13800.0, 152.24269
14000.0, 153.21625
14200.0, 156.55241
14400.0, 157.52202
14600.0, 160.8837
14800.0, 161.84956
15000.0, 165.2364
15200.0, 166.19868
15400.0, 169.61028
15600.0, 170.56908
15800.0, 174.0051
16000.0, 174.96054
16200.0, 178.42061
16400.0, 179.37292
16600.0, 182.85664
16800.0, 183.8058
17000.0, 187.3129
17200.0, 188.25906
17400.0, 191.7891
17600.0, 192.73239
17800.0, 193.66792
18000.0, 197.22552
18200.0, 198.15839
18400.0, 201.73824
18600.0, 202.66847
18800.0, 206.27022
19000.0, 207.19797
19200.0, 210.82129
19400.0, 211.74654
19600.0, 215.39111
19800.0, 216.31396
20000.0, 219.9795
20200.0, 220.89996
20400.0, 224.5862
20600.0, 225.50433
20800.0, 226.41563
21000.0, 230.12674
21200.0, 231.03589
21400.0, 234.76698
21600.0, 235.67398
21800.0, 239.42476
22000.0, 240.32968
22200.0, 244.0999
22400.0, 245.0027
22600.0, 248.79211
22800.0, 249.69284
23000.0, 250.58737
23200.0, 254.39983
23400.0, 255.29237
23600.0, 259.12344
23800.0, 260.01407
24000.0, 263.86343
24200.0, 264.7521
24400.0, 268.6195
24600.0, 269.50632
24800.0, 270.3873
25000.0, 274.27646
25200.0, 275.15558
25400.0, 279.06223
25600.0, 279.9395
25800.0, 283.8635
26000.0, 284.73898
26200.0, 285.6089
26400.0, 289.55368
26600.0, 290.42184
26800.0, 294.38336
27000.0, 295.24982
27200.0, 299.22784
27400.0, 300.09262
27600.0, 300.952
27800.0, 304.94992
28000.0, 305.80762
28200.0, 309.82162
28400.0, 310.67767
28600.0, 311.52856
28800.0, 315.56183
29000.0, 316.4111
29200.0, 320.45993
29400.0, 321.30762
29600.0, 325.37173
29800.0, 326.21783
30000.0, 327.05887
30200.0, 331.14154
30400.0, 331.98105
30600.0, 336.07855
30800.0, 336.91647
31000.0, 337.7496
31200.0, 341.8651
31400.0, 342.6967
31600.0, 346.8266
31800.0, 347.65662
32000.0, 351.8008
32200.0, 352.62936
32400.0, 353.45312
32600.0, 357.6145
32800.0, 358.43683
33000.0, 362.61206
33200.0, 363.43292
33400.0, 364.2491
33600.0, 368.44104
33800.0, 369.25583
34000.0, 373.4612
34200.0, 374.27448
34400.0, 375.0833
34600.0, 379.3049
34800.0, 380.11227
35000.0, 384.347
35200.0, 385.15283
35400.0, 385.9544
35600.0, 390.20483
35800.0, 391.00494
36000.0, 395.2681
36200.0, 396.0667
36400.0, 396.86118
36600.0, 401.1396
36800.0, 401.9326
37000.0, 406.22333
37200.0, 407.01492
37400.0, 407.80228
37600.0, 412.10794
37800.0, 412.8939
38000.0, 417.21155
38200.0, 417.9961
38400.0, 418.77664
38600.0, 423.1086
38800.0, 423.88773
39000.0, 428.23148
39200.0, 429.00912
39400.0, 429.7828
39600.0, 434.1405
39800.0, 434.9128
40000.0, 439.28198
40200.0, 440.0528
40400.0, 440.81982
40600.0, 445.2025
40800.0, 445.96814
41000.0, 450.3619
41200.0, 451.12604
41400.0, 451.8864
41600.0, 456.29337
41800.0, 457.05237
42000.0, 461.47012
42200.0, 462.2276
42400.0, 462.98154
42600.0, 467.41205
42800.0, 468.16455
43000.0, 472.60553
43200.0, 473.35663
43400.0, 474.104
43600.0, 478.55756
43800.0, 479.30353
44000.0, 480.04593
44200.0, 484.51175
44400.0, 485.25275
44600.0, 489.7286
44800.0, 490.46826
45000.0, 491.20425
45200.0, 495.6921
45400.0, 496.4268
45600.0, 500.92438
45800.0, 501.65762
46000.0, 502.38745
46200.0, 506.89664
46400.0, 507.625
46600.0, 508.35004
46800.0, 512.8708
47000.0, 513.5943
47200.0, 518.1243
47400.0, 518.8465
47600.0, 519.56537
47800.0, 524.1065
48000.0, 524.824
48200.0, 529.3742
48400.0, 530.0903
48600.0, 530.80304
48800.0, 535.36414
49000.0, 536.07544
49200.0, 536.78357
49400.0, 541.3553
49600.0, 542.062
49800.0, 546.64246
50000.0, 547.3478
50200.0, 548.05
50400.0, 552.6407
50600.0, 553.3415
50800.0, 557.94073
51000.0, 558.6401
51200.0, 559.33624
51400.0, 563.9457
51600.0, 564.64044
51800.0, 565.3321
52000.0, 569.9515
52200.0, 570.6417
52400.0, 575.26917
52600.0, 575.958
52800.0, 576.6439
53000.0, 581.281
53200.0, 581.96545
53400.0, 582.6468
53600.0, 587.29346
53800.0, 587.97345
54000.0, 592.6279
54200.0, 593.3066
54400.0, 593.9822
54600.0, 598.6458
54800.0, 599.32
55000.0, 603.99133
55200.0, 604.6643
55400.0, 605.3341
55600.0, 610.01434
55800.0, 610.68286
56000.0, 611.3485
56200.0, 616.0376
56400.0, 616.7019
56600.0, 621.39825
56800.0, 622.06104
57000.0, 622.721
57200.0, 627.4261
57400.0, 628.08466
57600.0, 628.74036
57800.0, 633.45386
58000.0, 634.1082
58200.0, 638.82874
58400.0, 639.4817
58600.0, 640.1318
58800.0, 644.86053
59000.0, 645.50934
59200.0, 646.15533
59400.0, 650.89233
59600.0, 651.53687
59800.0, 656.2804
60000.0, 656.92365
60200.0, 657.5641
60400.0, 662.3157
60600.0, 662.9547
60800.0, 663.5911
61000.0, 668.35046
61200.0, 668.9854
61400.0, 673.75116
61600.0, 674.3847
61800.0, 675.0156
62000.0, 679.789
62200.0, 680.4185
62400.0, 685.1981
62600.0, 685.82623
62800.0, 686.4517
63000.0, 691.23865
63200.0, 691.86273
63400.0, 692.4843
63600.0, 697.27844
63800.0, 697.8986
64000.0, 702.6988
64200.0, 703.3175
64400.0, 703.9336
64600.0, 708.74097
64800.0, 709.3555
65000.0, 709.9678
65200.0, 714.7821
65400.0, 715.3929
65600.0, 720.2129
65800.0, 720.82227
66000.0, 721.4291
66200.0, 726.2559
66400.0, 726.8613
66600.0, 727.46436
66800.0, 732.2978
67000.0, 732.89935
67200.0, 737.73834
67400.0, 738.33856
67600.0, 738.9362
67800.0, 743.7817
68000.0, 744.3779
68200.0, 744.9719
68400.0, 749.82367
68600.0, 750.41626
68800.0, 755.2733
69000.0, 755.8644
69200.0, 756.45306
69400.0, 761.3165
69600.0, 761.9037
69800.0, 762.4886
70000.0, 767.3581
70200.0, 767.9415
70400.0, 772.81616
70600.0, 773.3982
70800.0, 773.97797
71000.0, 778.85834
71200.0, 779.43677
71400.0, 780.01276
71600.0, 784.8991
71800.0, 785.4737
72000.0, 790.365
72200.0, 790.93823
72400.0, 791.50903
72600.0, 796.4058
72800.0, 796.9754
73000.0, 797.5426
73200.0, 802.4452
73400.0, 803.011
73600.0, 807.9182
73800.0, 808.4826
74000.0, 809.0447
74200.0, 813.95734
74400.0, 814.51807
74600.0, 815.0766
74800.0, 819.9945
75000.0, 820.5516
75200.0, 821.10645
75400.0, 826.0298
75600.0, 826.5833
75800.0, 831.51105
76000.0, 832.06305
76200.0, 832.61304
76400.0, 837.54584
76600.0, 838.09436
76800.0, 838.64075
77000.0, 843.57855
77200.0, 844.12354
77400.0, 849.0655
77600.0, 849.609
77800.0, 850.1503
78000.0, 855.0975
78200.0, 855.6374
78400.0, 856.1753
78600.0, 861.12714
78800.0, 861.6636
79000.0, 866.6195
79200.0, 867.15454
79400.0, 867.6875
79600.0, 872.64795
79800.0, 873.1795
80000.0, 873.7089
80200.0, 878.67413
80400.0, 879.2023
80600.0, 884.1714
80800.0, 884.69806
81000.0, 885.22266
81200.0, 890.1962
81400.0, 890.7193
81600.0, 891.2406
81800.0, 896.21844
82000.0, 896.7381
82200.0, 901.72
82400.0, 902.2383
82600.0, 902.7546
82800.0, 907.74054
83000.0, 908.25543
83200.0, 908.7684
83400.0, 913.7587
83600.0, 914.2702
83800.0, 919.2639
84000.0, 919.77405
84200.0, 920.28204
84400.0, 925.2799
84600.0, 925.78674
84800.0, 926.29156
85000.0, 931.2935
85200.0, 931.7968
85400.0, 936.8021
85600.0, 937.30414
85800.0, 937.80414
86000.0, 942.81323
86200.0, 943.3119
86400.0, 943.8087
86600.0, 948.8217
86800.0, 949.317
87000.0, 954.3333
87200.0, 954.8274
87400.0, 955.31934
87600.0, 960.33936
87800.0, 960.82996
88000.0, 961.3187
88200.0, 966.3423
88400.0, 966.82965
88600.0, 971.8565
88800.0, 972.34235
89000.0, 972.82654
89200.0, 977.8568
89400.0, 978.33954
89600.0, 978.82025
89800.0, 983.8542
90000.0, 984.3336
90200.0, 989.37054
90400.0, 989.8484
90600.0, 990.32465
90800.0, 995.3649
91000.0, 995.83954
91200.0, 996.3127
91400.0, 1001.35626
91600.0, 1001.8278
91800.0, 1006.8744
92000.0, 1007.34454
92200.0, 1007.8129
92400.0, 1012.8624
92600.0, 1013.3295
92800.0, 1013.79474
93000.0, 1018.8475
93200.0, 1019.3113
93400.0, 1024.3671
93600.0, 1024.8292
93800.0, 1025.2899
94000.0, 1030.3488
94200.0, 1030.808
94400.0, 1031.2654
94600.0, 1036.3273
94800.0, 1036.7832
95000.0, 1041.8475
95200.0, 1042.3022
95400.0, 1042.7552
95600.0, 1047.8224
95800.0, 1048.2739
96000.0, 1048.7239
96200.0, 1053.794
96400.0, 1054.2424
96600.0, 1059.3151
96800.0, 1059.7622
97000.0, 1060.2076
97200.0, 1065.2828
97400.0, 1065.7268
97600.0, 1070.8047
97800.0, 1071.2473
98000.0, 1071.6884
98200.0, 1076.7688
98400.0, 1077.2083
98600.0, 1077.6462
98800.0, 1082.7292
99000.0, 1083.1659
99200.0, 1088.2511
99400.0, 1088.6863
99600.0, 1089.1196
99800.0, 1094.2076
100000.0, 1094.6396
