Energy (in eV), SEEP yield of material CERS-withBUCT at isotropic incidence
   X,       Y
0.0, 0.0
200.0, 0.20804669
400.0, 0.2985091
600.0, 0.36774486
800.0, 0.42596358
1000.0, 0.47712374
1200.0, 0.5232574
1400.0, 0.56557256
1600.0, 0.6048575
1800.0, 0.6416598
2000.0, 0.67637867
2200.0, 0.70931596
2400.0, 0.74070656
2600.0, 0.7707365
2800.0, 0.79955775
3000.0, 0.82729506
3200.0, 0.8540535
3400.0, 0.87992114
3600.0, 0.9049738
3800.0, 0.9292772
4000.0, 0.95288783
4200.0, 0.9758564
4400.0, 0.99822646
4600.0, 1.0200373
4800.0, 1.0413243
5000.0, 1.0621183
5200.0, 1.0824481
5400.0, 1.1023396
5600.0, 1.1218157
5800.0, 1.1408979
6000.0, 1.1596054
6200.0, 1.1779566
6400.0, 1.1959677
6600.0, 1.213654
6800.0, 1.2310296
7000.0, 1.2481074
7200.0, 1.2648996
7400.0, 1.281418
7600.0, 1.2976727
7800.0, 1.3136737
8000.0, 1.3294303
8200.0, 1.3449512
8400.0, 1.3602448
8600.0, 1.3753184
8800.0, 1.3901795
9000.0, 1.4048356
9200.0, 1.419292
9400.0, 1.4335558
9600.0, 1.4476323
9800.0, 1.4615273
10000.0, 1.4752461
10200.0, 1.4887933
10400.0, 1.5021743
10600.0, 1.5153931
10800.0, 1.5284545
11000.0, 1.5413623
11200.0, 1.5541204
11400.0, 1.5667329
11600.0, 1.5792034
11800.0, 1.5915352
12000.0, 1.6037316
12200.0, 1.615796
12400.0, 1.6277307
12600.0, 1.6395401
12800.0, 1.6512258
13000.0, 1.6627913
13200.0, 1.6742386
13400.0, 1.6855702
13600.0, 1.6967895
13800.0, 1.7078977
14000.0, 1.7188975
14200.0, 1.7297913
14400.0, 1.740581
14600.0, 1.7512689
14800.0, 1.7618567
15000.0, 1.7723461
15200.0, 1.7827396
15400.0, 1.7930385
15600.0, 1.8032444
15800.0, 1.8133596
16000.0, 1.8233851
16200.0, 1.833323
16400.0, 1.8431747
16600.0, 1.852941
16800.0, 1.8626245
17000.0, 1.8722258
17200.0, 1.8817465
17400.0, 1.8911879
17600.0, 1.9005513
17800.0, 1.9098382
18000.0, 1.9190494
18200.0, 1.928186
18400.0, 1.9372497
18600.0, 1.9462411
18800.0, 1.9551618
19000.0, 1.9640126
19200.0, 1.9727948
19400.0, 1.9815087
19600.0, 1.9901559
19800.0, 1.9987375
20000.0, 2.007254
20200.0, 2.0157065
20400.0, 2.0240958
20600.0, 2.0324228
20800.0, 2.0406885
21000.0, 2.0488937
21200.0, 2.0570397
21400.0, 2.0651264
21600.0, 2.0731547
21800.0, 2.0811257
22000.0, 2.0890403
22200.0, 2.0968988
22400.0, 2.1047022
22600.0, 2.1124513
22800.0, 2.1201468
23000.0, 2.1277888
23200.0, 2.1353784
23400.0, 2.142916
23600.0, 2.150403
23800.0, 2.157839
24000.0, 2.1652253
24200.0, 2.1725624
24400.0, 2.17985
24600.0, 2.1870902
24800.0, 2.1942825
25000.0, 2.2014275
25200.0, 2.2085261
25400.0, 2.215579
25600.0, 2.222586
25800.0, 2.229548
26000.0, 2.2364657
26200.0, 2.2433393
26400.0, 2.2501695
26600.0, 2.2569566
26800.0, 2.263701
27000.0, 2.2704031
27200.0, 2.2770638
27400.0, 2.2836835
27600.0, 2.290262
27800.0, 2.2968001
28000.0, 2.3032985
28200.0, 2.3097572
28400.0, 2.316177
28600.0, 2.3225577
28800.0, 2.3289003
29000.0, 2.3352053
29200.0, 2.341472
29400.0, 2.3477018
29600.0, 2.3538947
29800.0, 2.3600512
30000.0, 2.3661714
30200.0, 2.3722556
30400.0, 2.3783047
30600.0, 2.3843186
30800.0, 2.3902977
31000.0, 2.3962426
31200.0, 2.4021533
31400.0, 2.4080303
31600.0, 2.4138734
31800.0, 2.4196832
32000.0, 2.4254606
32200.0, 2.4312055
32400.0, 2.436918
32600.0, 2.4425986
32800.0, 2.4482472
33000.0, 2.4538643
33200.0, 2.4594507
33400.0, 2.4650059
33600.0, 2.4705305
33800.0, 2.4760253
34000.0, 2.481489
34200.0, 2.4869237
34400.0, 2.4923286
34600.0, 2.4977045
34800.0, 2.503051
35000.0, 2.508369
35200.0, 2.513658
35400.0, 2.5189188
35600.0, 2.5241523
35800.0, 2.5293572
36000.0, 2.5345345
36200.0, 2.5396845
36400.0, 2.5448072
36600.0, 2.5499032
36800.0, 2.5549722
37000.0, 2.560015
37200.0, 2.5650315
37400.0, 2.5700212
37600.0, 2.5749862
37800.0, 2.5799243
38000.0, 2.5848377
38200.0, 2.5897255
38400.0, 2.5945885
38600.0, 2.5994263
38800.0, 2.6042392
39000.0, 2.6090286
39200.0, 2.613793
39400.0, 2.6185334
39600.0, 2.6232495
39800.0, 2.6279418
40000.0, 2.632611
40200.0, 2.6372564
40400.0, 2.641879
40600.0, 2.6464782
40800.0, 2.6510544
41000.0, 2.6556084
41200.0, 2.660139
41400.0, 2.6646476
41600.0, 2.6691344
41800.0, 2.6735985
42000.0, 2.6780412
42200.0, 2.6824615
42400.0, 2.686861
42600.0, 2.6912384
42800.0, 2.6955955
43000.0, 2.6999304
43200.0, 2.7042449
43400.0, 2.7085383
43600.0, 2.7128112
43800.0, 2.7170632
44000.0, 2.721295
44200.0, 2.7255063
44400.0, 2.729698
44600.0, 2.7338688
44800.0, 2.738021
45000.0, 2.7421525
45200.0, 2.7462652
45400.0, 2.7503576
45600.0, 2.754431
45800.0, 2.7584856
46000.0, 2.7625208
46200.0, 2.766537
46400.0, 2.7705343
46600.0, 2.7745132
46800.0, 2.7784736
47000.0, 2.7824152
47200.0, 2.7863388
47400.0, 2.790244
47600.0, 2.794131
47800.0, 2.798
48000.0, 2.801852
48200.0, 2.8056853
48400.0, 2.8095016
48600.0, 2.8133
48800.0, 2.8170815
49000.0, 2.8208454
49200.0, 2.8245919
49400.0, 2.8283217
49600.0, 2.8320339
49800.0, 2.8357303
50000.0, 2.8394094
50200.0, 2.8430715
50400.0, 2.8467174
50600.0, 2.8503468
50800.0, 2.8539605
51000.0, 2.8575573
51200.0, 2.861138
51400.0, 2.8647032
51600.0, 2.8682518
51800.0, 2.8717847
52000.0, 2.875302
52200.0, 2.8788035
52400.0, 2.8822896
52600.0, 2.88576
52800.0, 2.8892152
53000.0, 2.8926551
53200.0, 2.89608
53400.0, 2.8994896
53600.0, 2.9028845
53800.0, 2.906264
54000.0, 2.9096289
54200.0, 2.9129794
54400.0, 2.9163148
54600.0, 2.9196358
54800.0, 2.9229422
55000.0, 2.9262342
55200.0, 2.9295127
55400.0, 2.9327755
55600.0, 2.9360251
55800.0, 2.9392607
56000.0, 2.9424818
56200.0, 2.9456892
56400.0, 2.9488833
56600.0, 2.952063
56800.0, 2.955229
57000.0, 2.9583812
57200.0, 2.961521
57400.0, 2.9646463
57600.0, 2.9677584
57800.0, 2.9708579
58000.0, 2.9739435
58200.0, 2.9770157
58400.0, 2.9800756
58600.0, 2.983122
58800.0, 2.9861557
59000.0, 2.9891768
59200.0, 2.9921849
59400.0, 2.99518
59600.0, 2.9981623
59800.0, 3.0011322
60000.0, 3.0040898
60200.0, 3.0070353
60400.0, 3.0099676
60600.0, 3.012888
60800.0, 3.0157964
61000.0, 3.0186923
61200.0, 3.021576
61400.0, 3.024448
61600.0, 3.0273077
61800.0, 3.030156
62000.0, 3.0329916
62200.0, 3.035816
62400.0, 3.0386286
62600.0, 3.0414298
62800.0, 3.044219
63000.0, 3.046996
63200.0, 3.0497627
63400.0, 3.0525177
63600.0, 3.055261
63800.0, 3.0579934
64000.0, 3.0607138
64200.0, 3.0634234
64400.0, 3.0661225
64600.0, 3.0688102
64800.0, 3.0714865
65000.0, 3.074152
65200.0, 3.076807
65400.0, 3.0794506
65600.0, 3.0820835
65800.0, 3.0847056
66000.0, 3.0873175
66200.0, 3.0899184
66400.0, 3.0925083
66600.0, 3.0950885
66800.0, 3.0976577
67000.0, 3.1002169
67200.0, 3.102765
67400.0, 3.1053033
67600.0, 3.1078315
67800.0, 3.110349
68000.0, 3.1128566
68200.0, 3.1153545
68400.0, 3.1178415
68600.0, 3.1203194
68800.0, 3.1227868
69000.0, 3.1252444
69200.0, 3.1276917
69400.0, 3.13013
69600.0, 3.1325579
69800.0, 3.134976
70000.0, 3.1373851
70200.0, 3.139784
70400.0, 3.1421735
70600.0, 3.1445534
70800.0, 3.146924
71000.0, 3.149285
71200.0, 3.151637
71400.0, 3.1539793
71600.0, 3.1563125
71800.0, 3.158636
72000.0, 3.1609504
72200.0, 3.1632562
72400.0, 3.1655521
72600.0, 3.167839
72800.0, 3.1701176
73000.0, 3.1723864
73200.0, 3.1746466
73400.0, 3.176898
73600.0, 3.1791399
73800.0, 3.1813736
74000.0, 3.183598
74200.0, 3.185814
74400.0, 3.1880212
74600.0, 3.1902199
74800.0, 3.1924098
75000.0, 3.1945908
75200.0, 3.1967638
75400.0, 3.1989276
75600.0, 3.2010837
75800.0, 3.2032318
76000.0, 3.2053697
76200.0, 3.207501
76400.0, 3.2096229
76600.0, 3.2117372
76800.0, 3.2138433
77000.0, 3.2159405
77200.0, 3.21803
77400.0, 3.2201111
77600.0, 3.2221844
77800.0, 3.2242491
78000.0, 3.226307
78200.0, 3.2283554
78400.0, 3.2303972
78600.0, 3.23243
78800.0, 3.2344556
79000.0, 3.236473
79200.0, 3.2384834
79400.0, 3.240485
79600.0, 3.2424788
79800.0, 3.2444656
80000.0, 3.2464442
80200.0, 3.2484155
80400.0, 3.2503796
80600.0, 3.2523353
80800.0, 3.2542837
81000.0, 3.2562249
81200.0, 3.2581577
81400.0, 3.2600844
81600.0, 3.262003
81800.0, 3.263914
82000.0, 3.2658184
82200.0, 3.2677147
82400.0, 3.2696044
82600.0, 3.271487
82800.0, 3.2733612
83000.0, 3.2752287
83200.0, 3.2770898
83400.0, 3.2789433
83600.0, 3.2807899
83800.0, 3.282629
84000.0, 3.2844615
84200.0, 3.2862864
84400.0, 3.2881048
84600.0, 3.2899163
84800.0, 3.291721
85000.0, 3.2935188
85200.0, 3.2953093
85400.0, 3.2970934
85600.0, 3.2988706
85800.0, 3.3006408
86000.0, 3.3024044
86200.0, 3.3041613
86400.0, 3.3059118
86600.0, 3.3076558
86800.0, 3.3093927
87000.0, 3.3111227
87200.0, 3.3128474
87400.0, 3.3145642
87600.0, 3.3162746
87800.0, 3.3179793
88000.0, 3.319677
88200.0, 3.3213682
88400.0, 3.3230531
88600.0, 3.3247325
88800.0, 3.3264046
89000.0, 3.3280704
89200.0, 3.32973
89400.0, 3.3313835
89600.0, 3.3330305
89800.0, 3.3346713
90000.0, 3.336306
90200.0, 3.3379347
90400.0, 3.3395572
90600.0, 3.341174
90800.0, 3.3427837
91000.0, 3.3443875
91200.0, 3.3459866
91400.0, 3.3475783
91600.0, 3.3491645
91800.0, 3.3507442
92000.0, 3.3523188
92200.0, 3.353887
92400.0, 3.3554494
92600.0, 3.357006
92800.0, 3.3585567
93000.0, 3.3601005
93200.0, 3.3616397
93400.0, 3.3631735
93600.0, 3.3647006
93800.0, 3.3662221
94000.0, 3.3677385
94200.0, 3.369249
94400.0, 3.3707533
94600.0, 3.3722527
94800.0, 3.3737454
95000.0, 3.3752337
95200.0, 3.3767154
95400.0, 3.3781924
95600.0, 3.3796632
95800.0, 3.3811288
96000.0, 3.3825889
96200.0, 3.3840435
96400.0, 3.3854926
96600.0, 3.3869367
96800.0, 3.3883748
97000.0, 3.3898082
97200.0, 3.3912356
97400.0, 3.3926575
97600.0, 3.3940744
97800.0, 3.3954864
98000.0, 3.3968928
98200.0, 3.398294
98400.0, 3.3996894
98600.0, 3.4010806
98800.0, 3.402466
99000.0, 3.4038465
99200.0, 3.4052212
99400.0, 3.4065912
99600.0, 3.407956
99800.0, 3.4093156
100000.0, 3.4106708
