Energy (in eV), SEEP yield of material CFRP-NASCAP at isotropic incidence
   X,       Y
0.0, 0.0
200.0, 0.35693157
400.0, 0.51011384
600.0, 0.62713796
800.0, 0.7253614
1000.0, 0.81151915
1200.0, 0.88907087
1400.0, 0.96007437
1600.0, 1.0258733
1800.0, 1.0874026
2000.0, 1.1453437
2200.0, 1.2002116
2400.0, 1.252408
2600.0, 1.3022518
2800.0, 1.350003
3000.0, 1.3958755
3200.0, 1.4400485
3400.0, 1.4826742
3600.0, 1.5238825
3800.0, 1.5637863
4000.0, 1.6024828
4200.0, 1.6400585
4400.0, 1.6765897
4600.0, 1.7121439
4800.0, 1.7467811
5000.0, 1.7805557
5200.0, 1.8135169
5400.0, 1.8457093
5600.0, 1.8771733
5800.0, 1.907945
6000.0, 1.938059
6200.0, 1.9675465
6400.0, 1.9964349
6600.0, 2.0247521
6800.0, 2.052522
7000.0, 2.0797672
7200.0, 2.106509
7400.0, 2.1327674
7600.0, 2.1585605
7800.0, 2.1839058
8000.0, 2.2088196
8200.0, 2.2333167
8400.0, 2.2574122
8600.0, 2.2811189
8800.0, 2.3044493
9000.0, 2.327417
9200.0, 2.3500316
9400.0, 2.3723047
9600.0, 2.3942473
9800.0, 2.4158678
10000.0, 2.4371758
10200.0, 2.4581802
10400.0, 2.4788902
10600.0, 2.4993129
10800.0, 2.5194561
11000.0, 2.5393276
11200.0, 2.5589345
11400.0, 2.5782819
11600.0, 2.597378
11800.0, 2.6162283
12000.0, 2.6348386
12200.0, 2.6532147
12400.0, 2.6713624
12600.0, 2.689286
12800.0, 2.7069912
13000.0, 2.724483
13200.0, 2.7417657
13400.0, 2.7588441
13600.0, 2.775722
13800.0, 2.7924042
14000.0, 2.8088942
14200.0, 2.8251967
14400.0, 2.8413143
14600.0, 2.857252
14800.0, 2.8730125
15000.0, 2.8885994
15200.0, 2.9040155
15400.0, 2.9192653
15600.0, 2.9343505
15800.0, 2.9492753
16000.0, 2.9640412
16200.0, 2.9786525
16400.0, 2.9931114
16600.0, 3.00742
16800.0, 3.0215821
17000.0, 3.0355995
17200.0, 3.0494742
17400.0, 3.0632095
17600.0, 3.0768073
17800.0, 3.0902703
18000.0, 3.1035995
18200.0, 3.1167982
18400.0, 3.129868
18600.0, 3.1428108
18800.0, 3.1556294
19000.0, 3.1683254
19200.0, 3.1808999
19400.0, 3.1933553
19600.0, 3.205694
19800.0, 3.2179167
20000.0, 3.2300253
20200.0, 3.2420218
20400.0, 3.2539072
20600.0, 3.265685
20800.0, 3.2773547
21000.0, 3.2889185
21200.0, 3.3003783
21400.0, 3.311735
21600.0, 3.3229897
21800.0, 3.3341444
22000.0, 3.3452013
22200.0, 3.35616
22400.0, 3.3670223
22600.0, 3.3777907
22800.0, 3.3884645
23000.0, 3.399047
23200.0, 3.4095373
23400.0, 3.4199376
23600.0, 3.4302495
23800.0, 3.440474
24000.0, 3.4506114
24200.0, 3.460663
24400.0, 3.470631
24600.0, 3.4805155
24800.0, 3.4903173
25000.0, 3.5000372
25200.0, 3.5096774
25400.0, 3.519238
25600.0, 3.5287201
25800.0, 3.5381246
26000.0, 3.5474522
26200.0, 3.5567045
26400.0, 3.5658824
26600.0, 3.5749853
26800.0, 3.5840154
27000.0, 3.5929728
27200.0, 3.60186
27400.0, 3.6106756
27600.0, 3.619421
27800.0, 3.6280975
28000.0, 3.6367056
28200.0, 3.6452465
28400.0, 3.6537206
28600.0, 3.662128
28800.0, 3.6704705
29000.0, 3.6787484
29200.0, 3.686962
29400.0, 3.695112
29600.0, 3.7031999
29800.0, 3.7112253
30000.0, 3.71919
30200.0, 3.7270935
30400.0, 3.7349372
30600.0, 3.7427213
30800.0, 3.750447
31000.0, 3.7581134
31200.0, 3.7657232
31400.0, 3.7732759
31600.0, 3.7807715
31800.0, 3.7882116
32000.0, 3.7955954
32200.0, 3.8029263
32400.0, 3.8102012
32600.0, 3.817423
32800.0, 3.8245914
33000.0, 3.8317077
33200.0, 3.8387718
33400.0, 3.8457832
33600.0, 3.8527439
33800.0, 3.8596547
34000.0, 3.8665147
34200.0, 3.873325
34400.0, 3.880086
34600.0, 3.8867986
34800.0, 3.8934617
35000.0, 3.9000778
35200.0, 3.9066458
35400.0, 3.9131672
35600.0, 3.919643
35800.0, 3.9260712
36000.0, 3.932454
36200.0, 3.9387918
36400.0, 3.9450848
36600.0, 3.951333
36800.0, 3.9575372
37000.0, 3.9636974
37200.0, 3.9698148
37400.0, 3.9758885
37600.0, 3.9819205
37800.0, 3.9879098
38000.0, 3.9938576
38200.0, 3.999764
38400.0, 4.005629
38600.0, 4.0114536
38800.0, 4.017237
39000.0, 4.0229816
39200.0, 4.028686
39400.0, 4.0343513
39600.0, 4.0399766
39800.0, 4.0455637
40000.0, 4.0511127
40200.0, 4.0566235
40400.0, 4.0620966
40600.0, 4.0675325
40800.0, 4.072931
41000.0, 4.0782933
41200.0, 4.0836177
41400.0, 4.0889072
41600.0, 4.0941606
41800.0, 4.0993786
42000.0, 4.104561
42200.0, 4.109708
42400.0, 4.1148205
42600.0, 4.1198993
42800.0, 4.1249433
43000.0, 4.1299534
43200.0, 4.1349306
43400.0, 4.139873
43600.0, 4.144783
43800.0, 4.1496606
44000.0, 4.154505
44200.0, 4.1593175
44400.0, 4.1640983
44600.0, 4.168846
44800.0, 4.1735635
45000.0, 4.178249
45200.0, 4.182904
45400.0, 4.187527
45600.0, 4.1921196
45800.0, 4.196683
46000.0, 4.2012157
46200.0, 4.205718
46400.0, 4.2101917
46600.0, 4.214635
46800.0, 4.21905
47000.0, 4.2234344
47200.0, 4.2277913
47400.0, 4.2321196
47600.0, 4.2364197
47800.0, 4.2406907
48000.0, 4.244935
48200.0, 4.2491503
48400.0, 4.253339
48600.0, 4.2575
48800.0, 4.261634
49000.0, 4.265741
49200.0, 4.269821
49400.0, 4.273875
49600.0, 4.2779026
49800.0, 4.281904
50000.0, 4.2858787
50200.0, 4.289829
50400.0, 4.293753
50600.0, 4.297652
50800.0, 4.301525
51000.0, 4.3053746
51200.0, 4.3091965
51400.0, 4.312996
51600.0, 4.31677
51800.0, 4.320521
52000.0, 4.324247
52200.0, 4.3279476
52400.0, 4.331627
52600.0, 4.335281
52800.0, 4.3389125
53000.0, 4.3425198
53200.0, 4.346104
53400.0, 4.3496656
53600.0, 4.3532043
53800.0, 4.3567204
54000.0, 4.360214
54200.0, 4.363685
54400.0, 4.3671346
54600.0, 4.370561
54800.0, 4.3739657
55000.0, 4.3773494
55200.0, 4.380711
55400.0, 4.3840513
55600.0, 4.3873696
55800.0, 4.390667
56000.0, 4.3939443
56200.0, 4.3972006
56400.0, 4.400435
56600.0, 4.40365
56800.0, 4.4068427
57000.0, 4.410016
57200.0, 4.4131694
57400.0, 4.4163036
57600.0, 4.4194164
57800.0, 4.4225106
58000.0, 4.425584
58200.0, 4.4286385
58400.0, 4.4316735
58600.0, 4.434689
58800.0, 4.437685
59000.0, 4.440663
59200.0, 4.443621
59400.0, 4.4465613
59600.0, 4.4494815
59800.0, 4.4523845
60000.0, 4.455269
60200.0, 4.4581347
60400.0, 4.460982
60600.0, 4.463811
60800.0, 4.466623
61000.0, 4.4694166
61200.0, 4.472193
61400.0, 4.4749513
61600.0, 4.477692
61800.0, 4.480416
62000.0, 4.4831214
62200.0, 4.4858103
62400.0, 4.4884825
62600.0, 4.4911375
62800.0, 4.493776
63000.0, 4.496397
63200.0, 4.4990025
63400.0, 4.5015903
63600.0, 4.504162
63800.0, 4.5067167
64000.0, 4.5092564
64200.0, 4.51178
64400.0, 4.514287
64600.0, 4.5167785
64800.0, 4.5192533
65000.0, 4.5217133
65200.0, 4.524156
65400.0, 4.526585
65600.0, 4.5289984
65800.0, 4.531396
66000.0, 4.533778
66200.0, 4.5361457
66400.0, 4.5384974
66600.0, 4.540835
66800.0, 4.543157
67000.0, 4.545465
67200.0, 4.547757
67400.0, 4.5500355
67600.0, 4.552299
67800.0, 4.5545483
68000.0, 4.556783
68200.0, 4.5590043
68400.0, 4.56121
68600.0, 4.563402
68800.0, 4.5655804
69000.0, 4.5677447
69200.0, 4.569895
69400.0, 4.5720325
69600.0, 4.5741553
69800.0, 4.5762644
70000.0, 4.57836
70200.0, 4.5804424
70400.0, 4.5825114
70600.0, 4.5845675
70800.0, 4.5866103
71000.0, 4.5886397
71200.0, 4.5906563
71400.0, 4.5926595
71600.0, 4.59465
71800.0, 4.5966277
72000.0, 4.5985923
72200.0, 4.600545
72400.0, 4.6024847
72600.0, 4.6044116
72800.0, 4.606326
73000.0, 4.6082287
73200.0, 4.6101184
73400.0, 4.611996
73600.0, 4.6138616
73800.0, 4.615715
74000.0, 4.617556
74200.0, 4.6193857
74400.0, 4.621203
74600.0, 4.6230083
74800.0, 4.6248026
75000.0, 4.626585
75200.0, 4.628355
75400.0, 4.6301146
75600.0, 4.631861
75800.0, 4.6335983
76000.0, 4.6353235
76200.0, 4.6370363
76400.0, 4.638739
76600.0, 4.6404295
76800.0, 4.64211
77000.0, 4.643778
77200.0, 4.645437
77400.0, 4.647083
77600.0, 4.6487193
77800.0, 4.650344
78000.0, 4.6519585
78200.0, 4.653562
78400.0, 4.655156
78600.0, 4.6567388
78800.0, 4.6583104
79000.0, 4.659872
79200.0, 4.661423
79400.0, 4.6629643
79600.0, 4.6644945
79800.0, 4.6660147
80000.0, 4.6675253
80200.0, 4.669026
80400.0, 4.6705155
80600.0, 4.6719947
80800.0, 4.6734653
81000.0, 4.6749253
81200.0, 4.676376
81400.0, 4.6778164
81600.0, 4.6792474
81800.0, 4.6806693
82000.0, 4.6820807
82200.0, 4.6834826
82400.0, 4.684875
82600.0, 4.686258
82800.0, 4.687631
83000.0, 4.688995
83200.0, 4.69035
83400.0, 4.691696
83600.0, 4.6930323
83800.0, 4.69436
84000.0, 4.6956778
84200.0, 4.696986
84400.0, 4.6982865
84600.0, 4.699578
84800.0, 4.7008595
85000.0, 4.702132
85200.0, 4.7033978
85400.0, 4.7046533
85600.0, 4.7059007
85800.0, 4.7071385
86000.0, 4.708368
86200.0, 4.7095885
86400.0, 4.710801
86600.0, 4.7120047
86800.0, 4.7132
87000.0, 4.714387
87200.0, 4.7155657
87400.0, 4.7167354
87600.0, 4.717898
87800.0, 4.719052
88000.0, 4.720197
88200.0, 4.7213345
88400.0, 4.722464
88600.0, 4.7235856
88800.0, 4.724698
89000.0, 4.7258034
89200.0, 4.7269
89400.0, 4.7279906
89600.0, 4.729072
89800.0, 4.730145
90000.0, 4.7312107
90200.0, 4.7322683
90400.0, 4.733319
90600.0, 4.734362
90800.0, 4.7353973
91000.0, 4.7364244
91200.0, 4.737445
91400.0, 4.7384567
91600.0, 4.739462
91800.0, 4.7404604
92000.0, 4.7414503
92200.0, 4.742433
92400.0, 4.7434087
92600.0, 4.7443767
92800.0, 4.745337
93000.0, 4.7462916
93200.0, 4.747238
93400.0, 4.7481775
93600.0, 4.7491097
93800.0, 4.7500343
94000.0, 4.7509527
94200.0, 4.7518644
94400.0, 4.752769
94600.0, 4.753666
94800.0, 4.7545567
95000.0, 4.75544
95200.0, 4.7563176
95400.0, 4.757188
95600.0, 4.7580504
95800.0, 4.758908
96000.0, 4.759758
96200.0, 4.7606006
96400.0, 4.761438
96600.0, 4.7622676
96800.0, 4.7630916
97000.0, 4.763909
97200.0, 4.7647195
97400.0, 4.765523
97600.0, 4.766321
97800.0, 4.7671123
98000.0, 4.7678976
98200.0, 4.7686753
98400.0, 4.7694488
98600.0, 4.7702146
98800.0, 4.770975
99000.0, 4.771728
99200.0, 4.7724767
99400.0, 4.7732177
99600.0, 4.7739525
99800.0, 4.7746816
100000.0, 4.775405
