Energy (in eV), backscattering yield of material CERS-NASCAP at incidence 70.0 degree
   X,       Y
0.0, 0.7889359
10.0, 0.560408
20.0, 0.3980768
30.0, 0.28276747
40.0, 0.20085935
50.0, 0.14267722
60.0, 0.23101382
70.0, 0.2775982
80.0, 0.309592
90.0, 0.3336733
100.0, 0.35278818
110.0, 0.3685202
120.0, 0.38181537
130.0, 0.39328018
140.0, 0.4033244
150.0, 0.41223678
160.0, 0.42022777
170.0, 0.42745537
180.0, 0.4340408
190.0, 0.4400793
200.0, 0.44564673
210.0, 0.45080456
220.0, 0.45560327
230.0, 0.46008474
240.0, 0.4642841
250.0, 0.46823114
260.0, 0.47195122
270.0, 0.47546622
280.0, 0.47879505
290.0, 0.4819542
300.0, 0.4849581
310.0, 0.48781952
320.0, 0.49054968
330.0, 0.4931586
340.0, 0.4956553
350.0, 0.49804765
360.0, 0.500343
370.0, 0.5025478
380.0, 0.50466794
390.0, 0.5067088
400.0, 0.5086752
410.0, 0.5105717
420.0, 0.5124023
430.0, 0.5141707
440.0, 0.5158804
450.0, 0.5175346
460.0, 0.51913613
470.0, 0.52068776
480.0, 0.52219206
490.0, 0.5236513
500.0, 0.52506757
510.0, 0.526443
520.0, 0.52777946
530.0, 0.5290787
540.0, 0.5303424
550.0, 0.53157204
560.0, 0.5327691
570.0, 0.53393495
580.0, 0.5350709
590.0, 0.53617805
600.0, 0.5372577
610.0, 0.53831077
620.0, 0.53933835
630.0, 0.54034144
640.0, 0.5413208
650.0, 0.54227746
660.0, 0.5432122
670.0, 0.5441256
680.0, 0.54501873
690.0, 0.545892
700.0, 0.54674625
710.0, 0.547582
720.0, 0.5483999
730.0, 0.54920053
740.0, 0.54998446
750.0, 0.55075216
760.0, 0.5515042
770.0, 0.55224097
780.0, 0.552963
790.0, 0.5536707
800.0, 0.55436456
810.0, 0.55504483
820.0, 0.555712
830.0, 0.55636644
840.0, 0.5570085
850.0, 0.5576385
860.0, 0.5582568
870.0, 0.55886364
880.0, 0.55945945
890.0, 0.5600444
900.0, 0.5606188
910.0, 0.56118304
920.0, 0.5617372
930.0, 0.56228167
940.0, 0.56281656
950.0, 0.5633422
960.0, 0.56385887
970.0, 0.56436664
980.0, 0.5648658
990.0, 0.5653566
1000.0, 0.5658392
1010.0, 0.5656718
1020.0, 0.56550467
1030.0, 0.5653378
1040.0, 0.5651711
1050.0, 0.5650047
1060.0, 0.5648385
1070.0, 0.5646726
1080.0, 0.5645069
1090.0, 0.5643414
1100.0, 0.5641762
1110.0, 0.5640112
1120.0, 0.56384647
1130.0, 0.56368196
1140.0, 0.5635177
1150.0, 0.56335366
1160.0, 0.5631898
1170.0, 0.56302625
1180.0, 0.56286293
1190.0, 0.56269985
1200.0, 0.56253695
1210.0, 0.56237435
1220.0, 0.56221193
1230.0, 0.56204975
1240.0, 0.56188786
1250.0, 0.56172615
1260.0, 0.5615647
1270.0, 0.56140345
1280.0, 0.56124246
1290.0, 0.5610817
1300.0, 0.5609212
1310.0, 0.5607609
1320.0, 0.5606008
1330.0, 0.560441
1340.0, 0.5602814
1350.0, 0.5601221
1360.0, 0.5599629
1370.0, 0.559804
1380.0, 0.55964535
1390.0, 0.5594869
1400.0, 0.5593287
1410.0, 0.5591707
1420.0, 0.55901295
1430.0, 0.5588555
1440.0, 0.5586982
1450.0, 0.5585411
1460.0, 0.55838424
1470.0, 0.55822766
1480.0, 0.5580713
1490.0, 0.55791515
1500.0, 0.5577592
1510.0, 0.55760354
1520.0, 0.5574481
1530.0, 0.5572928
1540.0, 0.55713785
1550.0, 0.55698305
1560.0, 0.5568285
1570.0, 0.5566742
1580.0, 0.55652004
1590.0, 0.55636615
1600.0, 0.55621254
1610.0, 0.5560591
1620.0, 0.5559059
1630.0, 0.55575293
1640.0, 0.55560017
1650.0, 0.55544764
1660.0, 0.55529535
1670.0, 0.5551433
1680.0, 0.5549914
1690.0, 0.5548398
1700.0, 0.5546884
1710.0, 0.55453724
1720.0, 0.55438626
1730.0, 0.5542355
1740.0, 0.554085
1750.0, 0.5539347
1760.0, 0.55378467
1770.0, 0.55363476
1780.0, 0.55348516
1790.0, 0.5533358
1800.0, 0.5531866
1810.0, 0.55303764
1820.0, 0.5528889
1830.0, 0.55274034
1840.0, 0.55259204
1850.0, 0.552444
1860.0, 0.5522961
1870.0, 0.55214846
1880.0, 0.55200106
1890.0, 0.55185384
1900.0, 0.55170685
1910.0, 0.5515601
1920.0, 0.55141354
1930.0, 0.5512672
1940.0, 0.55112106
1950.0, 0.5509752
1960.0, 0.5508295
1970.0, 0.55068403
1980.0, 0.5505388
1990.0, 0.55039376
2000.0, 0.550249
2010.0, 0.5501044
2020.0, 0.54996
2030.0, 0.54981583
2040.0, 0.5496719
2050.0, 0.5495281
2060.0, 0.54938465
2070.0, 0.5492413
2080.0, 0.54909825
2090.0, 0.5489554
2100.0, 0.5488127
2110.0, 0.54867023
2120.0, 0.548528
2130.0, 0.548386
2140.0, 0.5482442
2150.0, 0.5481026
2160.0, 0.54796124
2170.0, 0.54782003
2180.0, 0.5476791
2190.0, 0.5475384
2200.0, 0.54739785
2210.0, 0.54725754
2220.0, 0.5471174
2230.0, 0.5469775
2240.0, 0.5468378
2250.0, 0.54669833
2260.0, 0.5465591
2270.0, 0.54642004
2280.0, 0.54628116
2290.0, 0.5461425
2300.0, 0.5460041
2310.0, 0.5458659
2320.0, 0.5457279
2330.0, 0.5455901
2340.0, 0.5454525
2350.0, 0.54531515
2360.0, 0.54517794
2370.0, 0.54504097
2380.0, 0.54490423
2390.0, 0.5447677
2400.0, 0.5446313
2410.0, 0.54449517
2420.0, 0.54435927
2430.0, 0.54422355
2440.0, 0.544088
2450.0, 0.5439527
2460.0, 0.5438176
2470.0, 0.5436827
2480.0, 0.543548
2490.0, 0.5434135
2500.0, 0.54327923
2510.0, 0.5431452
2520.0, 0.54301125
2530.0, 0.5428776
2540.0, 0.5427441
2550.0, 0.5426109
2560.0, 0.5424778
2570.0, 0.5423449
2580.0, 0.5422123
2590.0, 0.5420798
2600.0, 0.5419476
2610.0, 0.5418155
2620.0, 0.5416837
2630.0, 0.54155207
2640.0, 0.5414206
2650.0, 0.5412894
2660.0, 0.5411583
2670.0, 0.5410275
2680.0, 0.54089683
2690.0, 0.5407664
2700.0, 0.5406362
2710.0, 0.5405061
2720.0, 0.5403763
2730.0, 0.54024667
2740.0, 0.5401172
2750.0, 0.539988
2760.0, 0.53985894
2770.0, 0.53973013
2780.0, 0.53960145
2790.0, 0.539473
2800.0, 0.5393448
2810.0, 0.5392167
2820.0, 0.53908885
2830.0, 0.53896123
2840.0, 0.53883374
2850.0, 0.5387065
2860.0, 0.5385794
2870.0, 0.53845257
2880.0, 0.5383259
2890.0, 0.5381994
2900.0, 0.5380731
2910.0, 0.53794706
2920.0, 0.5378212
2930.0, 0.53769547
2940.0, 0.53756994
2950.0, 0.53744465
2960.0, 0.53731954
2970.0, 0.5371946
2980.0, 0.5370699
2990.0, 0.5369454
3000.0, 0.536821
3010.0, 0.5366969
3020.0, 0.53657293
3030.0, 0.5364492
3040.0, 0.53632563
3050.0, 0.53620225
3060.0, 0.53607905
3070.0, 0.5359561
3080.0, 0.5358333
3090.0, 0.5357107
3100.0, 0.53558826
3110.0, 0.535466
3120.0, 0.535344
3130.0, 0.5352222
3140.0, 0.5351005
3150.0, 0.53497905
3160.0, 0.53485775
3170.0, 0.5347367
3180.0, 0.5346158
3190.0, 0.5344951
3200.0, 0.5343746
3210.0, 0.53425425
3220.0, 0.5341341
3230.0, 0.53401417
3240.0, 0.53389436
3250.0, 0.53377485
3260.0, 0.5336554
3270.0, 0.53353626
3280.0, 0.5334172
3290.0, 0.5332984
3300.0, 0.53317976
3310.0, 0.53306127
3320.0, 0.532943
3330.0, 0.53282493
3340.0, 0.53270704
3350.0, 0.5325893
3360.0, 0.53247184
3370.0, 0.5323545
3380.0, 0.53223735
3390.0, 0.53212035
3400.0, 0.5320036
3410.0, 0.531887
3420.0, 0.5317705
3430.0, 0.5316543
3440.0, 0.53153825
3450.0, 0.5314224
3460.0, 0.5313067
3470.0, 0.53119123
3480.0, 0.5310759
3490.0, 0.53096074
3500.0, 0.5308458
3510.0, 0.530731
3520.0, 0.53061646
3530.0, 0.530502
3540.0, 0.53038776
3550.0, 0.53027374
3560.0, 0.5301599
3570.0, 0.5300462
3580.0, 0.5299327
3590.0, 0.52981937
3600.0, 0.52970624
3610.0, 0.5295932
3620.0, 0.52948046
3630.0, 0.52936786
3640.0, 0.52925545
3650.0, 0.52914315
3660.0, 0.5290311
3670.0, 0.5289192
3680.0, 0.5288075
3690.0, 0.52869594
3700.0, 0.5285846
3710.0, 0.52847344
3720.0, 0.5283624
3730.0, 0.5282516
3740.0, 0.52814096
3750.0, 0.52803046
3760.0, 0.5279202
3770.0, 0.52781004
3780.0, 0.5277001
3790.0, 0.52759033
3800.0, 0.5274807
3810.0, 0.52737135
3820.0, 0.5272621
3830.0, 0.527153
3840.0, 0.5270441
3850.0, 0.5269354
3860.0, 0.52682686
3870.0, 0.5267185
3880.0, 0.5266103
3890.0, 0.52650225
3900.0, 0.5263944
3910.0, 0.5262867
3920.0, 0.52617925
3930.0, 0.5260719
3940.0, 0.52596474
3950.0, 0.52585775
3960.0, 0.52575094
3970.0, 0.5256443
3980.0, 0.52553785
3990.0, 0.5254315
4000.0, 0.52532536
4010.0, 0.52521944
4020.0, 0.52511364
4030.0, 0.525008
4040.0, 0.5249026
4050.0, 0.5247973
4060.0, 0.5246922
4070.0, 0.5245873
4080.0, 0.5244825
4090.0, 0.5243779
4100.0, 0.52427346
4110.0, 0.5241692
4120.0, 0.5240651
4130.0, 0.5239612
4140.0, 0.5238574
4150.0, 0.5237538
4160.0, 0.5236504
4170.0, 0.5235472
4180.0, 0.52344406
4190.0, 0.5233411
4200.0, 0.5232384
4210.0, 0.52313584
4220.0, 0.5230334
4230.0, 0.52293116
4240.0, 0.52282906
4250.0, 0.52272713
4260.0, 0.5226254
4270.0, 0.52252376
4280.0, 0.5224224
4290.0, 0.5223211
4300.0, 0.52222
4310.0, 0.52211905
4320.0, 0.5220183
4330.0, 0.5219177
4340.0, 0.52181727
4350.0, 0.52171695
4360.0, 0.5216169
4370.0, 0.5215169
4380.0, 0.52141714
4390.0, 0.5213175
4400.0, 0.52121806
4410.0, 0.52111876
4420.0, 0.5210196
4430.0, 0.52092063
4440.0, 0.5208218
4450.0, 0.52072316
4460.0, 0.5206247
4470.0, 0.52052635
4480.0, 0.5204282
4490.0, 0.5203302
4500.0, 0.5202323
4510.0, 0.5201346
4520.0, 0.5200371
4530.0, 0.5199397
4540.0, 0.5198425
4550.0, 0.51974547
4560.0, 0.51964855
4570.0, 0.5195519
4580.0, 0.51945525
4590.0, 0.5193589
4600.0, 0.5192626
4610.0, 0.5191665
4620.0, 0.51907057
4630.0, 0.5189748
4640.0, 0.5188792
4650.0, 0.5187837
4660.0, 0.5186884
4670.0, 0.51859325
4680.0, 0.51849824
4690.0, 0.5184034
4700.0, 0.5183087
4710.0, 0.51821417
4720.0, 0.5181198
4730.0, 0.5180256
4740.0, 0.5179315
4750.0, 0.51783764
4760.0, 0.5177439
4770.0, 0.51765025
4780.0, 0.51755685
4790.0, 0.51746356
4800.0, 0.5173704
4810.0, 0.5172774
4820.0, 0.5171846
4830.0, 0.51709193
4840.0, 0.5169994
4850.0, 0.51690704
4860.0, 0.5168148
4870.0, 0.51672274
4880.0, 0.5166309
4890.0, 0.5165391
4900.0, 0.5164475
4910.0, 0.51635605
4920.0, 0.51626474
4930.0, 0.5161736
4940.0, 0.5160826
4950.0, 0.51599175
4960.0, 0.5159011
4970.0, 0.5158105
4980.0, 0.5157201
4990.0, 0.5156299
5000.0, 0.51553977
5010.0, 0.5154498
5020.0, 0.51536
5030.0, 0.51527035
5040.0, 0.5151809
5050.0, 0.51509154
5060.0, 0.5150023
5070.0, 0.5149133
5080.0, 0.5148244
5090.0, 0.51473564
5100.0, 0.514647
5110.0, 0.51455855
5120.0, 0.5144703
5130.0, 0.51438206
5140.0, 0.5142941
5150.0, 0.51420623
5160.0, 0.5141185
5170.0, 0.51403093
5180.0, 0.5139435
5190.0, 0.51385623
5200.0, 0.5137691
5210.0, 0.51368207
5220.0, 0.5135952
5230.0, 0.51350856
5240.0, 0.51342195
5250.0, 0.5133355
5260.0, 0.5132493
5270.0, 0.51316315
5280.0, 0.5130772
5290.0, 0.51299137
5300.0, 0.51290566
5310.0, 0.5128201
5320.0, 0.5127347
5330.0, 0.5126495
5340.0, 0.51256436
5350.0, 0.51247936
5360.0, 0.51239455
5370.0, 0.51230985
5380.0, 0.51222533
5390.0, 0.5121409
5400.0, 0.51205665
5410.0, 0.51197255
5420.0, 0.51188856
5430.0, 0.5118047
5440.0, 0.511721
5450.0, 0.51163745
5460.0, 0.51155406
5470.0, 0.5114708
5480.0, 0.51138765
5490.0, 0.5113047
5500.0, 0.5112218
5510.0, 0.5111391
5520.0, 0.51105654
5530.0, 0.5109741
5540.0, 0.5108918
5550.0, 0.51080966
5560.0, 0.51072764
5570.0, 0.51064575
5580.0, 0.510564
5590.0, 0.51048243
5600.0, 0.51040095
5610.0, 0.51031965
5620.0, 0.5102384
5630.0, 0.5101574
5640.0, 0.51007646
5650.0, 0.5099957
5660.0, 0.50991505
5670.0, 0.5098345
5680.0, 0.5097542
5690.0, 0.50967395
5700.0, 0.50959384
5710.0, 0.5095139
5720.0, 0.5094341
5730.0, 0.5093544
5740.0, 0.50927484
5750.0, 0.50919545
5760.0, 0.5091162
5770.0, 0.509037
5780.0, 0.508958
5790.0, 0.5088791
5800.0, 0.5088004
5810.0, 0.50872177
5820.0, 0.50864327
5830.0, 0.50856495
5840.0, 0.50848675
5850.0, 0.50840867
5860.0, 0.5083307
5870.0, 0.5082529
5880.0, 0.5081752
5890.0, 0.5080977
5900.0, 0.5080203
5910.0, 0.507943
5920.0, 0.50786585
5930.0, 0.50778884
5940.0, 0.50771195
5950.0, 0.5076352
5960.0, 0.5075586
5970.0, 0.50748205
5980.0, 0.5074057
5990.0, 0.50732946
6000.0, 0.50725335
6010.0, 0.5071774
6020.0, 0.50710154
6030.0, 0.50702584
6040.0, 0.50695026
6050.0, 0.5068748
6060.0, 0.5067995
6070.0, 0.5067243
6080.0, 0.50664926
6090.0, 0.5065743
6100.0, 0.50649947
6110.0, 0.5064248
6120.0, 0.5063503
6130.0, 0.50627583
6140.0, 0.50620157
6150.0, 0.50612736
6160.0, 0.5060533
6170.0, 0.5059794
6180.0, 0.5059056
6190.0, 0.50583196
6200.0, 0.5057584
6210.0, 0.50568503
6220.0, 0.5056118
6230.0, 0.5055386
6240.0, 0.50546557
6250.0, 0.5053927
6260.0, 0.5053199
6270.0, 0.50524724
6280.0, 0.5051747
6290.0, 0.5051023
6300.0, 0.50503004
6310.0, 0.50495785
6320.0, 0.50488585
6330.0, 0.50481397
6340.0, 0.50474215
6350.0, 0.5046705
6360.0, 0.504599
6370.0, 0.50452757
6380.0, 0.5044563
6390.0, 0.5043851
6400.0, 0.50431406
6410.0, 0.50424314
6420.0, 0.5041723
6430.0, 0.5041017
6440.0, 0.5040311
6450.0, 0.5039607
6460.0, 0.5038904
6470.0, 0.5038202
6480.0, 0.50375015
6490.0, 0.50368017
6500.0, 0.5036104
6510.0, 0.5035407
6520.0, 0.50347114
6530.0, 0.50340164
6540.0, 0.5033323
6550.0, 0.5032631
6560.0, 0.503194
6570.0, 0.503125
6580.0, 0.50305617
6590.0, 0.5029874
6600.0, 0.5029188
6610.0, 0.5028503
6620.0, 0.5027819
6630.0, 0.5027136
6640.0, 0.5026455
6650.0, 0.5025775
6660.0, 0.50250953
6670.0, 0.50244176
6680.0, 0.5023741
6690.0, 0.5023065
6700.0, 0.5022391
6710.0, 0.5021718
6720.0, 0.5021046
6730.0, 0.5020375
6740.0, 0.5019705
6750.0, 0.5019037
6760.0, 0.50183696
6770.0, 0.5017703
6780.0, 0.50170386
6790.0, 0.50163746
6800.0, 0.5015712
6810.0, 0.501505
6820.0, 0.501439
6830.0, 0.50137305
6840.0, 0.50130725
6850.0, 0.50124156
6860.0, 0.501176
6870.0, 0.5011105
6880.0, 0.50104517
6890.0, 0.5009799
6900.0, 0.5009148
6910.0, 0.5008498
6920.0, 0.5007849
6930.0, 0.5007201
6940.0, 0.5006554
6950.0, 0.5005909
6960.0, 0.5005264
6970.0, 0.5004621
6980.0, 0.5003979
6990.0, 0.5003338
7000.0, 0.50026983
7010.0, 0.50020593
7020.0, 0.50014216
7030.0, 0.5000785
7040.0, 0.50001496
7050.0, 0.49995154
7060.0, 0.4998882
7070.0, 0.499825
7080.0, 0.4997619
7090.0, 0.4996989
7100.0, 0.49963602
7110.0, 0.49957326
7120.0, 0.49951062
7130.0, 0.49944806
7140.0, 0.49938563
7150.0, 0.4993233
7160.0, 0.49926108
7170.0, 0.49919897
7180.0, 0.49913698
7190.0, 0.49907508
7200.0, 0.4990133
7210.0, 0.4989516
7220.0, 0.49889007
7230.0, 0.49882862
7240.0, 0.49876726
7250.0, 0.498706
7260.0, 0.4986449
7270.0, 0.49858388
7280.0, 0.49852297
7290.0, 0.49846214
7300.0, 0.49840146
7310.0, 0.49834085
7320.0, 0.49828035
7330.0, 0.49822
7340.0, 0.49815974
7350.0, 0.49809957
7360.0, 0.49803948
7370.0, 0.49797952
7380.0, 0.49791968
7390.0, 0.49785995
7400.0, 0.4978003
7410.0, 0.49774078
7420.0, 0.49768135
7430.0, 0.497622
7440.0, 0.4975628
7450.0, 0.4975037
7460.0, 0.4974447
7470.0, 0.49738577
7480.0, 0.497327
7490.0, 0.4972683
7500.0, 0.4972097
7510.0, 0.49715123
7520.0, 0.49709284
7530.0, 0.49703455
7540.0, 0.4969764
7550.0, 0.49691832
7560.0, 0.49686036
7570.0, 0.49680248
7580.0, 0.4967447
7590.0, 0.49668705
7600.0, 0.49662948
7610.0, 0.49657205
7620.0, 0.49651468
7630.0, 0.49645743
7640.0, 0.49640027
7650.0, 0.49634323
7660.0, 0.49628627
7670.0, 0.49622944
7680.0, 0.49617267
7690.0, 0.49611604
7700.0, 0.4960595
7710.0, 0.49600306
7720.0, 0.4959467
7730.0, 0.49589047
7740.0, 0.49583432
7750.0, 0.4957783
7760.0, 0.49572232
7770.0, 0.4956665
7780.0, 0.49561074
7790.0, 0.4955551
7800.0, 0.49549955
7810.0, 0.49544412
7820.0, 0.49538878
7830.0, 0.49533352
7840.0, 0.4952784
7850.0, 0.4952233
7860.0, 0.49516836
7870.0, 0.49511352
7880.0, 0.49505875
7890.0, 0.4950041
7900.0, 0.49494952
7910.0, 0.49489504
7920.0, 0.49484068
7930.0, 0.4947864
7940.0, 0.49473226
7950.0, 0.49467817
7960.0, 0.4946242
7970.0, 0.4945703
7980.0, 0.49451652
7990.0, 0.49446285
8000.0, 0.49440923
8010.0, 0.49435574
8020.0, 0.49430236
8030.0, 0.49424902
8040.0, 0.49419582
8050.0, 0.4941427
8060.0, 0.4940897
8070.0, 0.49403676
8080.0, 0.49398392
8090.0, 0.49393117
8100.0, 0.49387854
8110.0, 0.493826
8120.0, 0.49377355
8130.0, 0.4937212
8140.0, 0.4936689
8150.0, 0.49361676
8160.0, 0.4935647
8170.0, 0.4935127
8180.0, 0.4934608
8190.0, 0.493409
8200.0, 0.4933573
8210.0, 0.49330568
8220.0, 0.49325418
8230.0, 0.49320275
8240.0, 0.4931514
8250.0, 0.49310017
8260.0, 0.49304903
8270.0, 0.49299797
8280.0, 0.492947
8290.0, 0.4928961
8300.0, 0.49284536
8310.0, 0.49279463
8320.0, 0.49274406
8330.0, 0.49269354
8340.0, 0.49264315
8350.0, 0.49259278
8360.0, 0.49254256
8370.0, 0.4924924
8380.0, 0.49244237
8390.0, 0.4923924
8400.0, 0.49234253
8410.0, 0.49229273
8420.0, 0.49224305
8430.0, 0.49219343
8440.0, 0.49214393
8450.0, 0.4920945
8460.0, 0.49204516
8470.0, 0.49199593
8480.0, 0.49194676
8490.0, 0.4918977
8500.0, 0.4918487
8510.0, 0.49179983
8520.0, 0.49175102
8530.0, 0.4917023
8540.0, 0.49165368
8550.0, 0.49160513
8560.0, 0.49155667
8570.0, 0.4915083
8580.0, 0.49146006
8590.0, 0.49141183
8600.0, 0.49136373
8610.0, 0.49131572
8620.0, 0.4912678
8630.0, 0.49121997
8640.0, 0.4911722
8650.0, 0.49112454
8660.0, 0.49107695
8670.0, 0.49102947
8680.0, 0.49098206
8690.0, 0.49093473
8700.0, 0.4908875
8710.0, 0.49084035
8720.0, 0.49079326
8730.0, 0.4907463
8740.0, 0.49069938
8750.0, 0.49065256
8760.0, 0.49060586
8770.0, 0.4905592
8780.0, 0.49051264
8790.0, 0.49046618
8800.0, 0.4904198
8810.0, 0.4903735
8820.0, 0.49032727
8830.0, 0.49028113
8840.0, 0.4902351
8850.0, 0.4901891
8860.0, 0.4901432
8870.0, 0.49009743
8880.0, 0.49005172
8890.0, 0.4900061
8900.0, 0.48996052
8910.0, 0.48991504
8920.0, 0.48986965
8930.0, 0.48982435
8940.0, 0.48977914
8950.0, 0.489734
8960.0, 0.48968896
8970.0, 0.48964396
8980.0, 0.48959908
8990.0, 0.48955426
9000.0, 0.48950955
9010.0, 0.4894649
9020.0, 0.48942032
9030.0, 0.48937586
9040.0, 0.48933145
9050.0, 0.4892871
9060.0, 0.48924288
9070.0, 0.4891987
9080.0, 0.48915464
9090.0, 0.48911065
9100.0, 0.48906672
9110.0, 0.48902288
9120.0, 0.48897913
9130.0, 0.48893544
9140.0, 0.48889184
9150.0, 0.48884833
9160.0, 0.48880488
9170.0, 0.4887615
9180.0, 0.48871824
9190.0, 0.48867503
9200.0, 0.4886319
9210.0, 0.48858887
9220.0, 0.4885459
9230.0, 0.488503
9240.0, 0.4884602
9250.0, 0.48841748
9260.0, 0.48837483
9270.0, 0.48833224
9280.0, 0.48828974
9290.0, 0.48824733
9300.0, 0.488205
9310.0, 0.48816273
9320.0, 0.48812053
9330.0, 0.48807842
9340.0, 0.4880364
9350.0, 0.48799443
9360.0, 0.48795256
9370.0, 0.48791075
9380.0, 0.48786905
9390.0, 0.4878274
9400.0, 0.48778582
9410.0, 0.48774433
9420.0, 0.4877029
9430.0, 0.48766157
9440.0, 0.4876203
9450.0, 0.4875791
9460.0, 0.48753798
9470.0, 0.48749694
9480.0, 0.487456
9490.0, 0.4874151
9500.0, 0.48737428
9510.0, 0.48733354
9520.0, 0.4872929
9530.0, 0.4872523
9540.0, 0.48721176
9550.0, 0.48717132
9560.0, 0.48713097
9570.0, 0.48709068
9580.0, 0.48705047
9590.0, 0.4870103
9600.0, 0.48697025
9610.0, 0.48693025
9620.0, 0.48689032
9630.0, 0.48685047
9640.0, 0.4868107
9650.0, 0.486771
9660.0, 0.48673135
9670.0, 0.4866918
9680.0, 0.4866523
9690.0, 0.48661292
9700.0, 0.48657358
9710.0, 0.48653433
9720.0, 0.4864951
9730.0, 0.486456
9740.0, 0.48641694
9750.0, 0.48637798
9760.0, 0.48633906
9770.0, 0.48630023
9780.0, 0.4862615
9790.0, 0.48622277
9800.0, 0.48618415
9810.0, 0.48614562
9820.0, 0.48610714
9830.0, 0.48606873
9840.0, 0.4860304
9850.0, 0.48599213
9860.0, 0.48595393
9870.0, 0.4859158
9880.0, 0.48587778
9890.0, 0.48583978
9900.0, 0.48580188
9910.0, 0.48576403
9920.0, 0.48572627
9930.0, 0.48568857
9940.0, 0.48565093
9950.0, 0.48561338
9960.0, 0.48557588
9970.0, 0.48553845
9980.0, 0.48550108
9990.0, 0.4854638
10000.0, 0.4854266
10010.0, 0.48538944
10020.0, 0.48535237
10030.0, 0.48531535
10040.0, 0.4852784
10050.0, 0.48524153
10060.0, 0.48520473
10070.0, 0.485168
10080.0, 0.48513132
10090.0, 0.48509473
10100.0, 0.4850582
10110.0, 0.48502174
10120.0, 0.48498532
10130.0, 0.484949
10140.0, 0.48491275
10150.0, 0.48487654
10160.0, 0.48484042
10170.0, 0.48480436
10180.0, 0.48476836
10190.0, 0.48473245
10200.0, 0.48469657
10210.0, 0.48466077
10220.0, 0.48462504
10230.0, 0.4845894
10240.0, 0.48455378
10250.0, 0.48451826
10260.0, 0.4844828
10270.0, 0.48444742
10280.0, 0.48441207
10290.0, 0.48437682
10300.0, 0.48434162
10310.0, 0.48430648
10320.0, 0.4842714
10330.0, 0.48423642
10340.0, 0.48420146
10350.0, 0.4841666
10360.0, 0.48413178
10370.0, 0.48409703
10380.0, 0.48406234
10390.0, 0.48402774
10400.0, 0.48399317
10410.0, 0.4839587
10420.0, 0.48392427
10430.0, 0.48388994
10440.0, 0.48385563
10450.0, 0.4838214
10460.0, 0.48378724
10470.0, 0.48375311
10480.0, 0.48371908
10490.0, 0.4836851
10500.0, 0.4836512
10510.0, 0.48361734
10520.0, 0.48358357
10530.0, 0.48354983
10540.0, 0.4835162
10550.0, 0.48348257
10560.0, 0.48344904
10570.0, 0.48341557
10580.0, 0.48338217
10590.0, 0.48334882
10600.0, 0.48331553
10610.0, 0.4832823
10620.0, 0.48324916
10630.0, 0.48321605
10640.0, 0.483183
10650.0, 0.48315004
10660.0, 0.4831171
10670.0, 0.48308426
10680.0, 0.48305145
10690.0, 0.48301873
10700.0, 0.48298606
10710.0, 0.48295346
10720.0, 0.4829209
10730.0, 0.48288843
10740.0, 0.48285598
10750.0, 0.4828236
10760.0, 0.48279133
10770.0, 0.4827591
10780.0, 0.4827269
