Energy (in eV), SEEE yield of material CERS-NASCAP at incidence 90.0 degree
   X,       Y
0.0, 0.0
10.0, 0.15561853
20.0, 0.30995178
30.0, 0.46326822
40.0, 0.6156133
50.0, 0.76698613
60.0, 0.91736704
70.0, 1.0667287
80.0, 1.2150422
90.0, 1.3622738
100.0, 1.5083915
110.0, 1.6533605
120.0, 1.7971504
130.0, 1.9397278
140.0, 2.081062
150.0, 2.2211242
160.0, 2.359884
170.0, 2.497315
180.0, 2.6333907
190.0, 2.7680852
200.0, 2.901375
210.0, 3.033237
220.0, 3.1636474
230.0, 3.2925878
240.0, 3.420037
250.0, 3.5459793
260.0, 3.6703935
270.0, 3.7932677
280.0, 3.9145834
290.0, 4.0343275
300.0, 4.1524887
310.0, 4.2690525
320.0, 4.3840094
330.0, 4.49735
340.0, 4.609064
350.0, 4.7191443
360.0, 4.8275843
370.0, 4.934376
380.0, 5.0395155
390.0, 5.1429987
400.0, 5.2448206
410.0, 5.34498
420.0, 5.4434757
430.0, 5.540304
440.0, 5.6354656
450.0, 5.728963
460.0, 5.820795
470.0, 5.9109645
480.0, 5.9994745
490.0, 6.086329
500.0, 6.1715302
510.0, 6.2550826
520.0, 6.336992
530.0, 6.4172664
540.0, 6.4959097
550.0, 6.5729303
560.0, 6.648335
570.0, 6.722132
580.0, 6.79433
590.0, 6.8649387
600.0, 6.933968
610.0, 7.001427
620.0, 7.067327
630.0, 7.131676
640.0, 7.1944914
650.0, 7.2557807
660.0, 7.315556
670.0, 7.373831
680.0, 7.4306192
690.0, 7.4859333
700.0, 7.539784
710.0, 7.592189
720.0, 7.6431613
730.0, 7.6927147
740.0, 7.740865
750.0, 7.7876244
760.0, 7.833011
770.0, 7.877039
780.0, 7.919724
790.0, 7.96108
800.0, 8.001125
810.0, 8.039875
820.0, 8.077346
830.0, 8.113553
840.0, 8.148515
850.0, 8.182243
860.0, 8.21476
870.0, 8.24608
880.0, 8.27622
890.0, 8.305198
900.0, 8.333028
910.0, 8.359731
920.0, 8.385319
930.0, 8.409813
940.0, 8.433229
950.0, 8.455584
960.0, 8.476894
970.0, 8.497178
980.0, 8.516452
990.0, 8.534732
1000.0, 8.552036
1010.0, 8.56838
1020.0, 8.583783
1030.0, 8.59826
1040.0, 8.611828
1050.0, 8.624504
1060.0, 8.636304
1070.0, 8.6472435
1080.0, 8.657341
1090.0, 8.666613
1100.0, 8.675073
1110.0, 8.682738
1120.0, 8.689627
1130.0, 8.695752
1140.0, 8.70113
1150.0, 8.705776
1160.0, 8.709708
1170.0, 8.712939
1180.0, 8.715485
1190.0, 8.71736
1200.0, 8.718579
1210.0, 8.719158
1220.0, 8.7191105
1230.0, 8.718452
1240.0, 8.717196
1250.0, 8.715356
1260.0, 8.712948
1270.0, 8.709983
1280.0, 8.706477
1290.0, 8.702441
1300.0, 8.697892
1310.0, 8.69284
1320.0, 8.687298
1330.0, 8.68128
1340.0, 8.674797
1350.0, 8.667864
1360.0, 8.660491
1370.0, 8.65269
1380.0, 8.644474
1390.0, 8.635855
1400.0, 8.626843
1410.0, 8.61745
1420.0, 8.607688
1430.0, 8.597567
1440.0, 8.587096
1450.0, 8.576289
1460.0, 8.565155
1470.0, 8.553704
1480.0, 8.541945
1490.0, 8.529891
1500.0, 8.5175495
1510.0, 8.50493
1520.0, 8.492042
1530.0, 8.478894
1540.0, 8.465498
1550.0, 8.4518585
1560.0, 8.437987
1570.0, 8.423892
1580.0, 8.40958
1590.0, 8.3950615
1600.0, 8.3803425
1610.0, 8.365432
1620.0, 8.350338
1630.0, 8.335067
1640.0, 8.319625
1650.0, 8.304023
1660.0, 8.288264
1670.0, 8.272358
1680.0, 8.2563095
1690.0, 8.240128
1700.0, 8.223816
1710.0, 8.207382
1720.0, 8.190831
1730.0, 8.174171
1740.0, 8.157408
1750.0, 8.140544
1760.0, 8.123589
1770.0, 8.106545
1780.0, 8.089419
1790.0, 8.072216
1800.0, 8.05494
1810.0, 8.037598
1820.0, 8.020193
1830.0, 8.002729
1840.0, 7.985214
1850.0, 7.967649
1860.0, 7.95004
1870.0, 7.9323907
1880.0, 7.9147043
1890.0, 7.896985
1900.0, 7.8792386
1910.0, 7.861466
1920.0, 7.8436737
1930.0, 7.8258624
1940.0, 7.8080378
1950.0, 7.790202
1960.0, 7.7723584
1970.0, 7.75451
1980.0, 7.73666
1990.0, 7.718812
2000.0, 7.7009673
2010.0, 7.6831307
2020.0, 7.6653028
2030.0, 7.647488
2040.0, 7.6296873
2050.0, 7.611903
2060.0, 7.594139
2070.0, 7.5763965
2080.0, 7.5586786
2090.0, 7.5409856
2100.0, 7.52332
2110.0, 7.5056863
2120.0, 7.4880843
2130.0, 7.4705143
2140.0, 7.45298
2150.0, 7.4354844
2160.0, 7.418026
2170.0, 7.400608
2180.0, 7.383232
2190.0, 7.365899
2200.0, 7.3486114
2210.0, 7.331369
2220.0, 7.3141747
2230.0, 7.297028
2240.0, 7.279931
2250.0, 7.262884
2260.0, 7.245889
2270.0, 7.228948
2280.0, 7.21206
2290.0, 7.1952267
2300.0, 7.178448
2310.0, 7.161726
2320.0, 7.145062
2330.0, 7.128455
2340.0, 7.111908
2350.0, 7.0954185
2360.0, 7.078991
2370.0, 7.062622
2380.0, 7.0463142
2390.0, 7.0300684
2400.0, 7.0138845
2410.0, 6.9977636
2420.0, 6.981705
2430.0, 6.9657116
2440.0, 6.9497805
2450.0, 6.9339128
2460.0, 6.9181104
2470.0, 6.902374
2480.0, 6.8867016
2490.0, 6.8710938
2500.0, 6.8555512
2510.0, 6.8400745
2520.0, 6.8246646
2530.0, 6.8093195
2540.0, 6.7940416
2550.0, 6.7788277
2560.0, 6.763683
2570.0, 6.748602
2580.0, 6.733588
2590.0, 6.7186413
2600.0, 6.7037606
2610.0, 6.688946
2620.0, 6.6741977
2630.0, 6.6595154
2640.0, 6.6449
2650.0, 6.6303506
2660.0, 6.6158676
2670.0, 6.60145
2680.0, 6.587099
2690.0, 6.5728135
2700.0, 6.5585933
2710.0, 6.544439
2720.0, 6.530351
2730.0, 6.516327
2740.0, 6.502368
2750.0, 6.488475
2760.0, 6.4746447
2770.0, 6.460881
2780.0, 6.4471807
2790.0, 6.4335446
2800.0, 6.4199724
2810.0, 6.406464
2820.0, 6.3930187
2830.0, 6.379637
2840.0, 6.366317
2850.0, 6.3530607
2860.0, 6.3398666
2870.0, 6.3267345
2880.0, 6.3136644
2890.0, 6.3006563
2900.0, 6.2877088
2910.0, 6.274822
2920.0, 6.2619977
2930.0, 6.249233
2940.0, 6.2365274
2950.0, 6.223882
2960.0, 6.211298
2970.0, 6.198771
2980.0, 6.1863046
2990.0, 6.173896
3000.0, 6.1615458
