Energy (in eV), SEEE yield of material CERS-NASCAP at isotropic incidence
   X,       Y
0.0, 0.0
10.0, 0.15517624
20.0, 0.30864635
30.0, 0.4607659
40.0, 0.6116098
50.0, 0.76118374
60.0, 0.9094612
70.0, 1.0564126
80.0, 1.2020115
90.0, 1.346202
100.0, 1.4889603
110.0, 1.6302431
120.0, 1.7700127
130.0, 1.9082398
140.0, 2.0448828
150.0, 2.1799176
160.0, 2.3133056
170.0, 2.445025
180.0, 2.5750499
190.0, 2.7033527
200.0, 2.8299088
210.0, 2.9547045
220.0, 3.0777142
230.0, 3.1989198
240.0, 3.3183062
250.0, 3.4358664
260.0, 3.5515795
270.0, 3.6654363
280.0, 3.777434
290.0, 3.887559
300.0, 3.9958096
310.0, 4.102176
320.0, 4.20666
330.0, 4.309257
340.0, 4.409968
350.0, 4.5087924
360.0, 4.605735
370.0, 4.7007976
380.0, 4.7939825
390.0, 4.885299
400.0, 4.974753
410.0, 5.0623507
420.0, 5.148102
430.0, 5.232016
440.0, 5.314105
450.0, 5.394378
460.0, 5.472848
470.0, 5.54953
480.0, 5.6244354
490.0, 5.697581
500.0, 5.7689805
510.0, 5.8386493
520.0, 5.9066052
530.0, 5.9728646
540.0, 6.0374455
550.0, 6.100366
560.0, 6.161644
570.0, 6.2212996
580.0, 6.279351
590.0, 6.3358197
600.0, 6.3907237
610.0, 6.444083
620.0, 6.495922
630.0, 6.546258
640.0, 6.5951138
650.0, 6.642511
660.0, 6.6884704
670.0, 6.733014
680.0, 6.776164
690.0, 6.817942
700.0, 6.8583713
710.0, 6.8974705
720.0, 6.9352665
730.0, 6.9717774
740.0, 7.0070286
750.0, 7.04104
760.0, 7.073835
770.0, 7.1054354
780.0, 7.1358633
790.0, 7.1651406
800.0, 7.193289
810.0, 7.2203298
820.0, 7.246286
830.0, 7.2711782
840.0, 7.2950273
850.0, 7.317856
860.0, 7.339684
870.0, 7.3605328
880.0, 7.380424
890.0, 7.399375
900.0, 7.4174104
910.0, 7.434546
920.0, 7.4508047
930.0, 7.466205
940.0, 7.4807663
950.0, 7.4945083
960.0, 7.507449
970.0, 7.5196085
980.0, 7.531004
990.0, 7.5416527
1000.0, 7.551575
1010.0, 7.560787
1020.0, 7.5693073
1030.0, 7.5771513
1040.0, 7.5843368
1050.0, 7.5908804
1060.0, 7.5967984
1070.0, 7.6021066
1080.0, 7.6068206
1090.0, 7.6109576
1100.0, 7.614532
1110.0, 7.617556
1120.0, 7.6200466
1130.0, 7.622019
1140.0, 7.6234875
1150.0, 7.6244626
1160.0, 7.624962
1170.0, 7.6249976
1180.0, 7.6245813
1190.0, 7.6237254
1200.0, 7.622444
1210.0, 7.620752
1220.0, 7.6186557
1230.0, 7.6161714
1240.0, 7.6133084
1250.0, 7.610079
1260.0, 7.6064925
1270.0, 7.6025624
1280.0, 7.5982976
1290.0, 7.593707
1300.0, 7.5888042
1310.0, 7.5835977
1320.0, 7.578094
1330.0, 7.572306
1340.0, 7.566242
1350.0, 7.5599113
1360.0, 7.553322
1370.0, 7.5464826
1380.0, 7.539402
1390.0, 7.532088
1400.0, 7.524548
1410.0, 7.5167894
1420.0, 7.508821
1430.0, 7.5006514
1440.0, 7.492283
1450.0, 7.483728
1460.0, 7.4749894
1470.0, 7.466077
1480.0, 7.456993
1490.0, 7.4477487
1500.0, 7.438348
1510.0, 7.4287953
1520.0, 7.419096
1530.0, 7.4092593
1540.0, 7.399289
1550.0, 7.389189
1560.0, 7.378967
1570.0, 7.368626
1580.0, 7.3581715
1590.0, 7.347608
1600.0, 7.3369417
1610.0, 7.326175
1620.0, 7.315314
1630.0, 7.3043604
1640.0, 7.29332
1650.0, 7.282198
1660.0, 7.270998
1670.0, 7.25972
1680.0, 7.248372
1690.0, 7.2369576
1700.0, 7.2254777
1710.0, 7.213936
1720.0, 7.2023373
1730.0, 7.1906843
1740.0, 7.17898
1750.0, 7.1672273
1760.0, 7.155428
1770.0, 7.143585
1780.0, 7.1317034
1790.0, 7.1197844
1800.0, 7.107829
1810.0, 7.0958414
1820.0, 7.0838246
1830.0, 7.0717807
1840.0, 7.0597105
1850.0, 7.0476155
1860.0, 7.035501
1870.0, 7.023368
1880.0, 7.011216
1890.0, 6.9990497
1900.0, 6.9868703
1910.0, 6.974678
1920.0, 6.9624767
1930.0, 6.950268
1940.0, 6.938051
1950.0, 6.92583
1960.0, 6.913606
1970.0, 6.901379
1980.0, 6.889152
1990.0, 6.876926
2000.0, 6.864702
2010.0, 6.8524823
2020.0, 6.8402667
2030.0, 6.8280563
2040.0, 6.815854
2050.0, 6.8036604
2060.0, 6.7914743
2070.0, 6.7792997
2080.0, 6.767136
2090.0, 6.7549844
2100.0, 6.742846
2110.0, 6.730724
2120.0, 6.718614
2130.0, 6.7065206
2140.0, 6.694445
2150.0, 6.6823854
2160.0, 6.670346
2170.0, 6.6583247
2180.0, 6.646322
2190.0, 6.6343403
2200.0, 6.6223807
2210.0, 6.610441
2220.0, 6.598525
2230.0, 6.586631
2240.0, 6.57476
2250.0, 6.5629134
2260.0, 6.5510907
2270.0, 6.5392942
2280.0, 6.5275226
2290.0, 6.5157747
2300.0, 6.5040555
2310.0, 6.4923625
2320.0, 6.480696
2330.0, 6.469057
2340.0, 6.4574466
2350.0, 6.445863
2360.0, 6.4343085
2370.0, 6.4227824
2380.0, 6.411285
2390.0, 6.3998184
2400.0, 6.3883805
2410.0, 6.376972
2420.0, 6.365595
2430.0, 6.3542476
2440.0, 6.3429303
2450.0, 6.331645
2460.0, 6.32039
2470.0, 6.309166
2480.0, 6.297974
2490.0, 6.286813
2500.0, 6.275685
2510.0, 6.264588
2520.0, 6.2535224
2530.0, 6.242489
2540.0, 6.231489
2550.0, 6.2205205
2560.0, 6.209584
2570.0, 6.1986823
2580.0, 6.187811
2590.0, 6.176974
2600.0, 6.166169
2610.0, 6.1553965
2620.0, 6.144657
2630.0, 6.133951
2640.0, 6.123278
2650.0, 6.1126385
2660.0, 6.1020317
2670.0, 6.0914574
2680.0, 6.0809174
2690.0, 6.0704093
2700.0, 6.059936
2710.0, 6.049495
2720.0, 6.039088
2730.0, 6.028714
2740.0, 6.018373
2750.0, 6.0080647
2760.0, 5.99779
2770.0, 5.9875493
2780.0, 5.9773397
2790.0, 5.9671655
2800.0, 5.957024
2810.0, 5.9469147
2820.0, 5.936839
2830.0, 5.926797
2840.0, 5.916786
2850.0, 5.9068103
2860.0, 5.8968673
2870.0, 5.8869553
2880.0, 5.877077
2890.0, 5.867231
2900.0, 5.857419
2910.0, 5.847638
2920.0, 5.8378897
2930.0, 5.828175
2940.0, 5.818493
2950.0, 5.8088417
2960.0, 5.7992234
2970.0, 5.7896376
2980.0, 5.7800837
2990.0, 5.770561
3000.0, 5.761072
3010.0, 5.751614
3020.0, 5.742188
3030.0, 5.732793
3040.0, 5.723429
3050.0, 5.714099
3060.0, 5.7047987
3070.0, 5.6955295
3080.0, 5.686293
3090.0, 5.6770873
3100.0, 5.667912
3110.0, 5.6587677
3120.0, 5.649655
3130.0, 5.640572
3140.0, 5.6315203
3150.0, 5.6225
3160.0, 5.6135097
3170.0, 5.6045494
3180.0, 5.5956197
3190.0, 5.5867205
3200.0, 5.57785
3210.0, 5.569011
3220.0, 5.560202
3230.0, 5.5514226
3240.0, 5.5426717
3250.0, 5.5339518
3260.0, 5.5252604
3270.0, 5.5165997
3280.0, 5.507967
3290.0, 5.499364
3300.0, 5.490789
3310.0, 5.482244
3320.0, 5.4737277
3330.0, 5.465239
3340.0, 5.456781
3350.0, 5.4483504
3360.0, 5.4399486
3370.0, 5.431575
3380.0, 5.4232287
3390.0, 5.4149113
3400.0, 5.406622
3410.0, 5.3983603
3420.0, 5.3901267
3430.0, 5.3819203
3440.0, 5.373742
3450.0, 5.3655906
3460.0, 5.3574667
3470.0, 5.3493695
3480.0, 5.341301
3490.0, 5.3332577
3500.0, 5.3252416
3510.0, 5.3172526
3520.0, 5.309291
3530.0, 5.301355
3540.0, 5.293446
3550.0, 5.2855625
3560.0, 5.277705
3570.0, 5.269876
3580.0, 5.26207
3590.0, 5.254291
3600.0, 5.2465386
3610.0, 5.238811
3620.0, 5.23111
3630.0, 5.2234335
3640.0, 5.215782
3650.0, 5.208157
3660.0, 5.2005563
3670.0, 5.192981
3680.0, 5.185431
3690.0, 5.1779056
3700.0, 5.1704035
3710.0, 5.162928
3720.0, 5.1554766
3730.0, 5.148049
3740.0, 5.140646
3750.0, 5.133267
3760.0, 5.125912
3770.0, 5.1185822
3780.0, 5.111275
3790.0, 5.103992
3800.0, 5.0967326
3810.0, 5.0894976
3820.0, 5.082285
3830.0, 5.075096
3840.0, 5.06793
3850.0, 5.0607877
3860.0, 5.0536685
3870.0, 5.0465713
3880.0, 5.039499
3890.0, 5.0324473
3900.0, 5.0254188
3910.0, 5.018414
3920.0, 5.0114307
3930.0, 5.0044694
3940.0, 4.997532
3950.0, 4.9906163
3960.0, 4.983722
3970.0, 4.9768496
3980.0, 4.9700003
3990.0, 4.963171
4000.0, 4.9563646
4010.0, 4.9495797
4020.0, 4.9428167
4030.0, 4.9360743
4040.0, 4.9293547
4050.0, 4.9226537
4060.0, 4.9159756
4070.0, 4.909319
4080.0, 4.9026823
4090.0, 4.896067
4100.0, 4.889472
4110.0, 4.8828983
4120.0, 4.8763447
4130.0, 4.869812
4140.0, 4.8632994
4150.0, 4.856807
4160.0, 4.850336
4170.0, 4.843884
4180.0, 4.8374515
4190.0, 4.8310394
4200.0, 4.824648
4210.0, 4.8182755
4220.0, 4.811923
4230.0, 4.80559
4240.0, 4.799277
4250.0, 4.792983
4260.0, 4.7867084
4270.0, 4.780453
4280.0, 4.774218
4290.0, 4.7680016
4300.0, 4.7618036
4310.0, 4.7556243
4320.0, 4.749464
4330.0, 4.7433233
4340.0, 4.7372003
4350.0, 4.7310963
4360.0, 4.7250113
4370.0, 4.718945
4380.0, 4.712896
4390.0, 4.706866
4400.0, 4.700854
4410.0, 4.69486
4420.0, 4.688884
4430.0, 4.682926
4440.0, 4.6769867
4450.0, 4.6710644
4460.0, 4.6651597
4470.0, 4.6592727
4480.0, 4.6534033
4490.0, 4.647552
4500.0, 4.641718
4510.0, 4.635901
4520.0, 4.6301007
4530.0, 4.6243186
4540.0, 4.6185536
4550.0, 4.612806
4560.0, 4.6070743
4570.0, 4.60136
4580.0, 4.595663
4590.0, 4.589982
4600.0, 4.584318
4610.0, 4.578671
4620.0, 4.5730405
4630.0, 4.5674267
4640.0, 4.561828
4650.0, 4.5562468
4660.0, 4.550681
4670.0, 4.5451326
4680.0, 4.5396
4690.0, 4.5340824
4700.0, 4.5285816
4710.0, 4.523097
4720.0, 4.5176277
4730.0, 4.512175
4740.0, 4.5067377
4750.0, 4.501315
4760.0, 4.4959087
4770.0, 4.490517
4780.0, 4.485142
4790.0, 4.479783
4800.0, 4.474438
4810.0, 4.469108
4820.0, 4.463795
4830.0, 4.4584956
4840.0, 4.4532113
4850.0, 4.447943
4860.0, 4.442689
4870.0, 4.4374495
4880.0, 4.432225
4890.0, 4.427016
4900.0, 4.4218216
4910.0, 4.416641
4920.0, 4.411475
4930.0, 4.406324
4940.0, 4.4011874
4950.0, 4.3960657
4960.0, 4.3909574
4970.0, 4.385864
4980.0, 4.3807845
4990.0, 4.375718
5000.0, 4.370667
5010.0, 4.3656297
5020.0, 4.3606067
5030.0, 4.3555975
5040.0, 4.3506017
5050.0, 4.3456197
5060.0, 4.340652
5070.0, 4.335698
5080.0, 4.3307576
5090.0, 4.3258295
5100.0, 4.3209167
5110.0, 4.3160167
5120.0, 4.31113
5130.0, 4.3062572
5140.0, 4.3013964
5150.0, 4.2965493
5160.0, 4.291716
5170.0, 4.286896
5180.0, 4.2820883
5190.0, 4.2772937
5200.0, 4.272513
5210.0, 4.267744
5220.0, 4.262988
5230.0, 4.2582455
5240.0, 4.2535157
5250.0, 4.2487984
5260.0, 4.244094
5270.0, 4.239402
5280.0, 4.234722
5290.0, 4.2300553
5300.0, 4.225401
5310.0, 4.220759
5320.0, 4.216129
5330.0, 4.211511
5340.0, 4.2069054
5350.0, 4.2023125
5360.0, 4.1977324
5370.0, 4.1931634
5380.0, 4.1886063
5390.0, 4.1840615
5400.0, 4.1795287
5410.0, 4.175008
5420.0, 4.1704993
5430.0, 4.1660023
5440.0, 4.161517
5450.0, 4.157043
5460.0, 4.152581
5470.0, 4.148131
5480.0, 4.143692
5490.0, 4.1392655
5500.0, 4.134849
5510.0, 4.130445
5520.0, 4.1260524
5530.0, 4.1216707
5540.0, 4.117301
5550.0, 4.1129417
5560.0, 4.108594
5570.0, 4.1042576
5580.0, 4.0999327
5590.0, 4.0956182
5600.0, 4.0913153
5610.0, 4.087023
5620.0, 4.0827417
5630.0, 4.078471
5640.0, 4.0742116
5650.0, 4.069963
5660.0, 4.0657253
5670.0, 4.0614977
5680.0, 4.0572815
5690.0, 4.0530763
5700.0, 4.048881
5710.0, 4.0446963
5720.0, 4.040523
5730.0, 4.0363593
5740.0, 4.032207
5750.0, 4.0280643
5760.0, 4.0239325
5770.0, 4.01981
5780.0, 4.015699
5790.0, 4.0115976
5800.0, 4.0075064
5810.0, 4.003426
5820.0, 3.9993556
5830.0, 3.9952953
5840.0, 3.9912443
5850.0, 3.9872038
5860.0, 3.9831736
5870.0, 3.979153
5880.0, 3.975143
5890.0, 3.9711423
5900.0, 3.967151
5910.0, 3.9631698
5920.0, 3.9591985
5930.0, 3.9552374
5940.0, 3.9512858
5950.0, 3.9473438
5960.0, 3.9434109
5970.0, 3.9394882
5980.0, 3.9355743
5990.0, 3.931671
6000.0, 3.9277763
6010.0, 3.9238915
6020.0, 3.920016
6030.0, 3.9161494
6040.0, 3.9122932
6050.0, 3.9084458
6060.0, 3.904607
6070.0, 3.900777
6080.0, 3.896958
6090.0, 3.8931468
6100.0, 3.8893456
6110.0, 3.8855536
6120.0, 3.88177
6130.0, 3.8779955
6140.0, 3.8742304
6150.0, 3.8704739
6160.0, 3.8667264
6170.0, 3.8629885
6180.0, 3.8592584
6190.0, 3.855538
6200.0, 3.851826
6210.0, 3.8481228
6220.0, 3.8444285
6230.0, 3.8407426
6240.0, 3.837066
6250.0, 3.8333964
6260.0, 3.8297367
6270.0, 3.8260858
6280.0, 3.8224432
6290.0, 3.8188093
6300.0, 3.815183
6310.0, 3.8115659
6320.0, 3.8079567
6330.0, 3.8043568
6340.0, 3.8007646
6350.0, 3.797181
6360.0, 3.7936053
6370.0, 3.7900386
6380.0, 3.7864792
6390.0, 3.7829292
6400.0, 3.7793858
6410.0, 3.7758522
6420.0, 3.7723255
6430.0, 3.7688076
6440.0, 3.7652977
6450.0, 3.7617958
6460.0, 3.7583017
6470.0, 3.754816
6480.0, 3.7513373
6490.0, 3.7478676
6500.0, 3.7444053
6510.0, 3.7409508
6520.0, 3.7375047
6530.0, 3.7340658
6540.0, 3.7306352
6550.0, 3.727212
6560.0, 3.7237968
6570.0, 3.720389
6580.0, 3.7169888
6590.0, 3.7135966
6600.0, 3.7102122
6610.0, 3.706835
6620.0, 3.7034655
6630.0, 3.7001035
6640.0, 3.6967483
6650.0, 3.6934013
6660.0, 3.690062
6670.0, 3.6867301
6680.0, 3.6834054
6690.0, 3.680088
6700.0, 3.6767788
6710.0, 3.6734757
6720.0, 3.6701806
6730.0, 3.6668925
6740.0, 3.6636121
6750.0, 3.6603384
6760.0, 3.6570718
6770.0, 3.6538136
6780.0, 3.6505613
6790.0, 3.6473167
6800.0, 3.6440794
6810.0, 3.6408489
6820.0, 3.6376255
6830.0, 3.6344092
6840.0, 3.6311996
6850.0, 3.6279974
6860.0, 3.624802
6870.0, 3.6216137
6880.0, 3.618432
6890.0, 3.6152575
6900.0, 3.6120899
6910.0, 3.608929
6920.0, 3.6057749
6930.0, 3.602628
6940.0, 3.5994873
6950.0, 3.5963535
6960.0, 3.593227
6970.0, 3.5901065
6980.0, 3.5869927
6990.0, 3.5838861
7000.0, 3.580786
7010.0, 3.5776925
7020.0, 3.5746057
7030.0, 3.571525
7040.0, 3.5684516
7050.0, 3.565384
7060.0, 3.5623236
7070.0, 3.559269
7080.0, 3.5562217
7090.0, 3.55318
7100.0, 3.5501456
7110.0, 3.5471168
7120.0, 3.5440946
7130.0, 3.541079
7140.0, 3.53807
7150.0, 3.5350666
7160.0, 3.5320702
7170.0, 3.5290797
7180.0, 3.5260954
7190.0, 3.5231173
7200.0, 3.520146
7210.0, 3.5171804
7220.0, 3.5142207
7230.0, 3.5112674
7240.0, 3.5083206
7250.0, 3.5053797
7260.0, 3.502445
7270.0, 3.4995167
7280.0, 3.4965937
7290.0, 3.4936774
7300.0, 3.4907668
7310.0, 3.487862
7320.0, 3.4849637
7330.0, 3.4820712
7340.0, 3.4791844
7350.0, 3.4763043
7360.0, 3.473429
7370.0, 3.47056
7380.0, 3.4676971
7390.0, 3.46484
7400.0, 3.4619882
7410.0, 3.4591434
7420.0, 3.4563036
7430.0, 3.4534695
7440.0, 3.4506412
7450.0, 3.4478188
7460.0, 3.4450023
7470.0, 3.442191
7480.0, 3.4393857
7490.0, 3.4365864
7500.0, 3.4337924
7510.0, 3.4310038
7520.0, 3.4282207
7530.0, 3.4254441
7540.0, 3.4226723
7550.0, 3.4199064
7560.0, 3.4171457
7570.0, 3.4143908
7580.0, 3.4116418
7590.0, 3.4088974
7600.0, 3.4061594
7610.0, 3.4034264
7620.0, 3.4006987
7630.0, 3.3979766
7640.0, 3.3952594
7650.0, 3.3925486
7660.0, 3.389843
7670.0, 3.3871422
7680.0, 3.3844466
7690.0, 3.3817568
7700.0, 3.379072
7710.0, 3.3763926
7720.0, 3.373719
7730.0, 3.3710504
7740.0, 3.3683867
7750.0, 3.3657286
7760.0, 3.3630753
7770.0, 3.3604276
7780.0, 3.3577843
7790.0, 3.3551466
7800.0, 3.3525143
7810.0, 3.3498871
7820.0, 3.3472648
7830.0, 3.3446476
7840.0, 3.3420353
7850.0, 3.3394291
7860.0, 3.3368268
7870.0, 3.33423
7880.0, 3.3316383
7890.0, 3.3290517
7900.0, 3.3264701
7910.0, 3.3238933
7920.0, 3.3213208
7930.0, 3.3187544
7940.0, 3.3161922
7950.0, 3.3136353
7960.0, 3.311083
7970.0, 3.3085356
7980.0, 3.305993
7990.0, 3.3034556
8000.0, 3.3009224
8010.0, 3.2983944
8020.0, 3.295872
8030.0, 3.2933538
8040.0, 3.2908404
8050.0, 3.2883315
8060.0, 3.2858274
8070.0, 3.2833285
8080.0, 3.2808337
8090.0, 3.278344
8100.0, 3.2758589
8110.0, 3.273379
8120.0, 3.2709029
8130.0, 3.2684314
8140.0, 3.2659652
8150.0, 3.2635038
8160.0, 3.2610462
8170.0, 3.2585938
8180.0, 3.256146
8190.0, 3.2537024
8200.0, 3.251264
8210.0, 3.2488296
8220.0, 3.2464
8230.0, 3.2439747
8240.0, 3.2415538
8250.0, 3.2391376
8260.0, 3.2367258
8270.0, 3.2343187
8280.0, 3.231916
8290.0, 3.2295175
8300.0, 3.2271237
8310.0, 3.2247338
8320.0, 3.2223496
8330.0, 3.2199683
8340.0, 3.217592
8350.0, 3.21522
8360.0, 3.212852
8370.0, 3.210489
8380.0, 3.20813
8390.0, 3.2057757
8400.0, 3.2034252
8410.0, 3.2010796
8420.0, 3.1987376
8430.0, 3.1964002
8440.0, 3.194067
8450.0, 3.191738
8460.0, 3.189413
8470.0, 3.1870928
8480.0, 3.184776
8490.0, 3.1824646
8500.0, 3.1801562
8510.0, 3.1778526
8520.0, 3.1755528
8530.0, 3.1732574
8540.0, 3.1709664
8550.0, 3.1686788
8560.0, 3.166396
8570.0, 3.1641169
8580.0, 3.1618423
8590.0, 3.1595716
8600.0, 3.1573043
8610.0, 3.1550424
8620.0, 3.1527832
8630.0, 3.1505287
8640.0, 3.1482782
8650.0, 3.1460319
8660.0, 3.1437893
8670.0, 3.14155
8680.0, 3.1393156
8690.0, 3.1370852
8700.0, 3.1348586
8710.0, 3.1326358
8720.0, 3.1304166
8730.0, 3.1282024
8740.0, 3.1259909
8750.0, 3.1237838
8760.0, 3.1215806
8770.0, 3.1193807
8780.0, 3.117186
8790.0, 3.1149943
8800.0, 3.1128063
8810.0, 3.1106226
8820.0, 3.1084423
8830.0, 3.1062663
8840.0, 3.1040936
8850.0, 3.101925
8860.0, 3.09976
8870.0, 3.0975988
8880.0, 3.0954413
8890.0, 3.0932875
8900.0, 3.091138
8910.0, 3.0889919
8920.0, 3.086849
8930.0, 3.0847101
8940.0, 3.0825756
8950.0, 3.0804439
8960.0, 3.0783157
8970.0, 3.0761924
8980.0, 3.074072
8990.0, 3.0719552
9000.0, 3.069842
9010.0, 3.0677323
9020.0, 3.0656266
9030.0, 3.0635247
9040.0, 3.0614254
9050.0, 3.0593312
9060.0, 3.0572393
9070.0, 3.0551517
9080.0, 3.0530674
9090.0, 3.0509863
9100.0, 3.0489092
9110.0, 3.0468354
9120.0, 3.0447655
9130.0, 3.0426986
9140.0, 3.0406356
9150.0, 3.0385761
9160.0, 3.0365198
9170.0, 3.0344672
9180.0, 3.0324178
9190.0, 3.0303724
9200.0, 3.0283298
9210.0, 3.0262907
9220.0, 3.0242553
9230.0, 3.0222237
9240.0, 3.0201948
9250.0, 3.0181696
9260.0, 3.016148
9270.0, 3.0141292
9280.0, 3.012114
9290.0, 3.0101027
9300.0, 3.0080938
9310.0, 3.0060894
9320.0, 3.0040877
9330.0, 3.002089
9340.0, 3.0000947
9350.0, 2.9981024
9360.0, 2.9961145
9370.0, 2.9941292
9380.0, 2.9921474
9390.0, 2.9901688
9400.0, 2.9881938
9410.0, 2.9862218
9420.0, 2.984253
9430.0, 2.9822874
9440.0, 2.9803252
9450.0, 2.9783661
9460.0, 2.9764106
9470.0, 2.9744575
9480.0, 2.9725084
9490.0, 2.9705622
9500.0, 2.9686189
9510.0, 2.9666793
9520.0, 2.9647422
9530.0, 2.9628093
9540.0, 2.9608786
9550.0, 2.9589515
9560.0, 2.9570277
9570.0, 2.9551065
9580.0, 2.953189
9590.0, 2.9512737
9600.0, 2.9493628
9610.0, 2.947454
9620.0, 2.9455483
9630.0, 2.9436462
9640.0, 2.9417467
9650.0, 2.939851
9660.0, 2.9379573
9670.0, 2.9360673
9680.0, 2.9341805
9690.0, 2.9322963
9700.0, 2.9304156
9710.0, 2.9285376
9720.0, 2.9266627
9730.0, 2.9247906
9740.0, 2.9229217
9750.0, 2.921056
9760.0, 2.9191928
9770.0, 2.917333
9780.0, 2.9154758
9790.0, 2.9136217
9800.0, 2.9117706
9810.0, 2.9099221
9820.0, 2.9080772
9830.0, 2.9062347
9840.0, 2.9043949
9850.0, 2.9025586
9860.0, 2.9007251
9870.0, 2.8988948
9880.0, 2.8970668
9890.0, 2.895242
9900.0, 2.8934197
9910.0, 2.8916008
9920.0, 2.8897843
9930.0, 2.887971
9940.0, 2.8861606
9950.0, 2.8843522
9960.0, 2.8825474
9970.0, 2.8807456
9980.0, 2.8789463
9990.0, 2.87715
10000.0, 2.875356
10010.0, 2.8735652
10020.0, 2.8717773
10030.0, 2.8699923
10040.0, 2.8682096
10050.0, 2.8664298
10060.0, 2.8646526
10070.0, 2.8628788
10080.0, 2.8611073
10090.0, 2.8593388
10100.0, 2.8575726
10110.0, 2.8558095
10120.0, 2.8540487
10130.0, 2.8522906
10140.0, 2.8505359
10150.0, 2.8487835
10160.0, 2.847034
10170.0, 2.8452866
10180.0, 2.8435426
10190.0, 2.841801
10200.0, 2.8400617
10210.0, 2.8383255
10220.0, 2.836592
10230.0, 2.8348613
10240.0, 2.8331325
10250.0, 2.8314068
10260.0, 2.8296843
10270.0, 2.8279636
10280.0, 2.826246
10290.0, 2.8245306
10300.0, 2.822818
10310.0, 2.8211079
10320.0, 2.8194005
10330.0, 2.8176963
10340.0, 2.8159935
10350.0, 2.814294
10360.0, 2.8125968
10370.0, 2.8109024
10380.0, 2.8092105
10390.0, 2.807521
10400.0, 2.8058348
10410.0, 2.80415
10420.0, 2.802468
10430.0, 2.8007889
10440.0, 2.7991123
10450.0, 2.7974381
10460.0, 2.7957666
10470.0, 2.7940974
10480.0, 2.7924306
10490.0, 2.7907667
10500.0, 2.789105
10510.0, 2.7874453
10520.0, 2.7857888
10530.0, 2.7841344
10540.0, 2.7824826
10550.0, 2.780833
10560.0, 2.779186
10570.0, 2.777542
10580.0, 2.7758996
10590.0, 2.77426
10600.0, 2.772623
10610.0, 2.7709882
10620.0, 2.769356
10630.0, 2.7677257
10640.0, 2.7660983
10650.0, 2.7644732
10660.0, 2.7628508
10670.0, 2.7612302
10680.0, 2.7596123
10690.0, 2.7579966
10700.0, 2.7563837
10710.0, 2.7547727
10720.0, 2.7531643
10730.0, 2.7515578
10740.0, 2.7499542
10750.0, 2.7483528
10760.0, 2.7467535
10770.0, 2.7451568
10780.0, 2.7435625
10790.0, 2.7419705
10800.0, 2.7403805
10810.0, 2.7387936
10820.0, 2.7372081
10830.0, 2.735625
10840.0, 2.7340446
10850.0, 2.7324662
10860.0, 2.7308905
10870.0, 2.7293165
10880.0, 2.727745
10890.0, 2.726176
10900.0, 2.7246094
10910.0, 2.7230446
10920.0, 2.721482
10930.0, 2.719922
10940.0, 2.718364
10950.0, 2.7168083
10960.0, 2.715255
10970.0, 2.7137039
10980.0, 2.712155
10990.0, 2.710608
11000.0, 2.7090635
11010.0, 2.7075212
11020.0, 2.7059808
11030.0, 2.7044432
11040.0, 2.7029073
11050.0, 2.7013738
11060.0, 2.699842
11070.0, 2.698313
11080.0, 2.6967864
11090.0, 2.6952617
11100.0, 2.6937385
11110.0, 2.6922183
11120.0, 2.6906998
11130.0, 2.6891835
11140.0, 2.6876698
11150.0, 2.686158
11160.0, 2.684648
11170.0, 2.68314
11180.0, 2.6816342
11190.0, 2.680131
11200.0, 2.6786299
11210.0, 2.6771305
11220.0, 2.675633
11230.0, 2.6741385
11240.0, 2.6726453
11250.0, 2.6711545
11260.0, 2.6696658
11270.0, 2.6681793
11280.0, 2.6666942
