Energy (in eV), SEEE yield of material al2k-NASCAP at isotropic incidence
   X,       Y
0.0, 0.0
10.0, 0.08667153
20.0, 0.16943009
30.0, 0.24868307
40.0, 0.32457143
50.0, 0.3971789
60.0, 0.46656618
70.0, 0.5327858
80.0, 0.5958912
90.0, 0.65593755
100.0, 0.7129831
110.0, 0.76709145
120.0, 0.81832975
130.0, 0.8667697
140.0, 0.9124866
150.0, 0.9555594
160.0, 0.99606967
170.0, 1.0341014
180.0, 1.0697404
190.0, 1.1030738
200.0, 1.13419
210.0, 1.163177
220.0, 1.1901238
230.0, 1.2151177
240.0, 1.2382462
250.0, 1.2595955
260.0, 1.2792501
270.0, 1.297293
280.0, 1.3138053
290.0, 1.3288665
300.0, 1.3425531
310.0, 1.3549396
320.0, 1.3660979
330.0, 1.3760972
340.0, 1.3850051
350.0, 1.3928851
360.0, 1.3997989
370.0, 1.4058052
380.0, 1.4109604
390.0, 1.4153181
400.0, 1.4189291
410.0, 1.4218419
420.0, 1.4241023
430.0, 1.4257544
440.0, 1.4268386
450.0, 1.4273947
460.0, 1.4274589
470.0, 1.4270662
480.0, 1.426249
490.0, 1.425038
500.0, 1.4234623
510.0, 1.4215491
520.0, 1.4193234
530.0, 1.4168096
540.0, 1.4140294
550.0, 1.4110045
560.0, 1.407754
570.0, 1.4042964
580.0, 1.4006485
590.0, 1.3968266
600.0, 1.3928453
610.0, 1.3887188
620.0, 1.38446
630.0, 1.3800808
640.0, 1.3755926
650.0, 1.3710057
660.0, 1.3663303
670.0, 1.3615749
680.0, 1.3567483
690.0, 1.351858
700.0, 1.3469121
710.0, 1.3419164
720.0, 1.3368778
730.0, 1.331802
740.0, 1.3266941
750.0, 1.3215598
760.0, 1.3164033
770.0, 1.3112291
780.0, 1.3060414
790.0, 1.300843
800.0, 1.2956386
810.0, 1.2904308
820.0, 1.2852224
830.0, 1.2800164
840.0, 1.2748153
850.0, 1.2696214
860.0, 1.264437
870.0, 1.2592639
880.0, 1.2541038
890.0, 1.2489587
900.0, 1.2438303
910.0, 1.2387195
920.0, 1.2336283
930.0, 1.228557
940.0, 1.2235074
950.0, 1.2184806
960.0, 1.2134771
970.0, 1.2084979
980.0, 1.2035438
990.0, 1.1986154
1000.0, 1.1937137
1010.0, 1.1888386
1020.0, 1.1839912
1030.0, 1.1791718
1040.0, 1.1743805
1050.0, 1.169618
1060.0, 1.1648847
1070.0, 1.1601803
1080.0, 1.1555058
1090.0, 1.1508611
1100.0, 1.1462461
1110.0, 1.1416615
1120.0, 1.1371068
1130.0, 1.1325825
1140.0, 1.1280885
1150.0, 1.1236247
1160.0, 1.1191914
1170.0, 1.1147884
1180.0, 1.110416
1190.0, 1.1060737
1200.0, 1.1017617
1210.0, 1.09748
1220.0, 1.0932285
1230.0, 1.0890069
1240.0, 1.0848153
1250.0, 1.0806534
1260.0, 1.0765214
1270.0, 1.0724187
1280.0, 1.0683455
1290.0, 1.0643017
1300.0, 1.0602869
1310.0, 1.0563011
1320.0, 1.0523441
1330.0, 1.0484157
1340.0, 1.0445155
1350.0, 1.0406437
1360.0, 1.0368001
1370.0, 1.0329843
1380.0, 1.0291957
1390.0, 1.0254352
1400.0, 1.0217016
1410.0, 1.0179951
1420.0, 1.0143155
1430.0, 1.0106626
1440.0, 1.0070361
1450.0, 1.0034357
1460.0, 0.9998618
1470.0, 0.9963132
1480.0, 0.9927904
1490.0, 0.98929304
1500.0, 0.98582083
1510.0, 0.98237354
1520.0, 0.9789508
1530.0, 0.9755528
1540.0, 0.9721792
1550.0, 0.9688297
1560.0, 0.96550405
1570.0, 0.96220195
1580.0, 0.9589235
1590.0, 0.95566845
1600.0, 0.95243627
1610.0, 0.94922715
1620.0, 0.9460405
1630.0, 0.9428763
1640.0, 0.93973446
1650.0, 0.9366146
1660.0, 0.9335167
1670.0, 0.93044037
1680.0, 0.9273854
1690.0, 0.9243518
1700.0, 0.92133915
1710.0, 0.9183474
1720.0, 0.91537637
1730.0, 0.91242576
1740.0, 0.90949553
1750.0, 0.9065854
1760.0, 0.9036951
1770.0, 0.9008246
1780.0, 0.89797366
1790.0, 0.895142
1800.0, 0.89232963
1810.0, 0.8895362
1820.0, 0.88676155
1830.0, 0.8840054
1840.0, 0.88126814
1850.0, 0.8785489
1860.0, 0.87584805
1870.0, 0.87316495
1880.0, 0.87049973
1890.0, 0.8678522
1900.0, 0.86522204
1910.0, 0.86260915
1920.0, 0.8600137
1930.0, 0.857435
1940.0, 0.8548732
1950.0, 0.85232806
1960.0, 0.84979945
1970.0, 0.8472872
1980.0, 0.84479123
1990.0, 0.8423112
2000.0, 0.8398473
2010.0, 0.83739895
2020.0, 0.83496636
2030.0, 0.8325493
2040.0, 0.83014745
2050.0, 0.82776093
2060.0, 0.82538956
2070.0, 0.8230329
2080.0, 0.82069117
2090.0, 0.8183641
2100.0, 0.81605154
2110.0, 0.8137535
2120.0, 0.8114695
2130.0, 0.8091997
2140.0, 0.806944
2150.0, 0.80470216
2160.0, 0.802474
2170.0, 0.80025965
2180.0, 0.7980587
2190.0, 0.79587114
2200.0, 0.7936968
2210.0, 0.7915358
2220.0, 0.7893877
2230.0, 0.78725255
2240.0, 0.78513026
2250.0, 0.7830207
2260.0, 0.7809234
2270.0, 0.77883893
2280.0, 0.7767668
2290.0, 0.7747067
2300.0, 0.772659
2310.0, 0.7706232
2320.0, 0.7685994
2330.0, 0.76658744
2340.0, 0.7645871
2350.0, 0.7625985
2360.0, 0.76062155
2370.0, 0.75865585
2380.0, 0.75670147
2390.0, 0.7547584
2400.0, 0.75282633
2410.0, 0.7509056
2420.0, 0.74899554
2430.0, 0.7470965
2440.0, 0.7452082
2450.0, 0.7433305
2460.0, 0.7414634
2470.0, 0.7396069
2480.0, 0.7377607
2490.0, 0.7359249
2500.0, 0.73409927
2510.0, 0.7322838
2520.0, 0.73047847
2530.0, 0.728683
2540.0, 0.7268974
2550.0, 0.72512186
2560.0, 0.7233557
2570.0, 0.72159946
2580.0, 0.7198528
2590.0, 0.71811545
2600.0, 0.7163877
2610.0, 0.71466917
2620.0, 0.71295995
2630.0, 0.71126
2640.0, 0.7095691
2650.0, 0.7078871
2660.0, 0.7062143
2670.0, 0.70455027
2680.0, 0.7028951
2690.0, 0.7012487
2700.0, 0.69961095
2710.0, 0.69798183
2720.0, 0.6963613
2730.0, 0.6947492
2740.0, 0.6931455
2750.0, 0.6915502
2760.0, 0.68996316
2770.0, 0.68838435
2780.0, 0.6868137
2790.0, 0.68525106
2800.0, 0.68369645
2810.0, 0.6821498
2820.0, 0.6806112
2830.0, 0.67908037
2840.0, 0.6775572
2850.0, 0.6760419
2860.0, 0.67453414
2870.0, 0.6730341
2880.0, 0.6715415
2890.0, 0.6700564
2900.0, 0.6685787
2910.0, 0.6671084
2920.0, 0.66564554
2930.0, 0.66418976
2940.0, 0.6627413
2950.0, 0.6612999
2960.0, 0.6598656
2970.0, 0.65843844
2980.0, 0.65701824
2990.0, 0.65560496
3000.0, 0.6541985
3010.0, 0.65279895
3020.0, 0.65140617
3030.0, 0.6500202
3040.0, 0.6486408
3050.0, 0.6472682
3060.0, 0.645902
3070.0, 0.64454246
3080.0, 0.64318925
3090.0, 0.64184254
3100.0, 0.64050233
3110.0, 0.63916844
3120.0, 0.6378408
3130.0, 0.6365195
3140.0, 0.6352043
3150.0, 0.6338953
3160.0, 0.6325925
3170.0, 0.63129574
3180.0, 0.63000506
3190.0, 0.6287203
3200.0, 0.6274416
3210.0, 0.62616867
3220.0, 0.62490165
3230.0, 0.62364054
3240.0, 0.62238514
3250.0, 0.6211355
3260.0, 0.61989164
3270.0, 0.61865336
3280.0, 0.61742073
3290.0, 0.61619365
3300.0, 0.6149721
3310.0, 0.6137561
3320.0, 0.61254555
3330.0, 0.6113405
3340.0, 0.61014086
3350.0, 0.6089465
3360.0, 0.60775745
3370.0, 0.6065737
3380.0, 0.60539526
3390.0, 0.60422194
3400.0, 0.6030539
3410.0, 0.60189086
3420.0, 0.60073304
3430.0, 0.5995803
3440.0, 0.5984326
3450.0, 0.59728986
3460.0, 0.5961521
3470.0, 0.5950193
3480.0, 0.5938914
3490.0, 0.5927684
3500.0, 0.5916501
3510.0, 0.59053683
3520.0, 0.5894282
3530.0, 0.58832437
3540.0, 0.5872252
3550.0, 0.5861308
3560.0, 0.58504087
3570.0, 0.5839557
3580.0, 0.58287513
3590.0, 0.5817991
3600.0, 0.5807275
3610.0, 0.57966065
3620.0, 0.5785981
3630.0, 0.57754
3640.0, 0.57648635
3650.0, 0.575437
3660.0, 0.5743921
3670.0, 0.57335156
3680.0, 0.5723153
3690.0, 0.5712833
3700.0, 0.5702555
3710.0, 0.5692319
3720.0, 0.5682127
3730.0, 0.5671975
3740.0, 0.5661865
3750.0, 0.5651796
3760.0, 0.5641767
3770.0, 0.56317794
3780.0, 0.56218326
3790.0, 0.5611926
3800.0, 0.5602058
3810.0, 0.5592231
3820.0, 0.5582443
3830.0, 0.5572695
3840.0, 0.5562985
3850.0, 0.55533135
3860.0, 0.554368
3870.0, 0.55340856
3880.0, 0.5524529
3890.0, 0.551501
3900.0, 0.5505529
3910.0, 0.54960847
3920.0, 0.5486677
3930.0, 0.54773074
3940.0, 0.54679745
3950.0, 0.54586774
3960.0, 0.5449415
3970.0, 0.54401904
3980.0, 0.5431001
3990.0, 0.54218465
4000.0, 0.5412728
4010.0, 0.54036456
4020.0, 0.53945965
4030.0, 0.53855824
4040.0, 0.53766036
4050.0, 0.53676575
4060.0, 0.53587466
4070.0, 0.534987
4080.0, 0.5341026
4090.0, 0.5332216
4100.0, 0.53234386
4110.0, 0.5314695
4120.0, 0.53059846
4130.0, 0.5297306
4140.0, 0.5288661
4150.0, 0.5280047
4160.0, 0.52714664
4170.0, 0.52629167
4180.0, 0.52544
4190.0, 0.5245914
4200.0, 0.52374583
4210.0, 0.52290356
4220.0, 0.52206445
4230.0, 0.52122825
4240.0, 0.5203953
4250.0, 0.51956517
4260.0, 0.5187381
4270.0, 0.51791424
4280.0, 0.5170932
4290.0, 0.5162752
4300.0, 0.51546025
4310.0, 0.51464814
4320.0, 0.51383895
4330.0, 0.51303285
4340.0, 0.5122295
4350.0, 0.51142895
4360.0, 0.5106313
4370.0, 0.50983673
4380.0, 0.5090448
4390.0, 0.50825584
4400.0, 0.50746953
4410.0, 0.5066861
4420.0, 0.5059054
4430.0, 0.5051274
4440.0, 0.5043523
4450.0, 0.5035798
4460.0, 0.50281
4470.0, 0.502043
4480.0, 0.50127864
4490.0, 0.500517
4500.0, 0.49975786
4510.0, 0.49900144
4520.0, 0.49824768
4530.0, 0.49749655
4540.0, 0.496748
4550.0, 0.49600196
4560.0, 0.49525866
4570.0, 0.4945177
4580.0, 0.49377942
4590.0, 0.49304366
4600.0, 0.49231037
4610.0, 0.49157968
4620.0, 0.4908514
4630.0, 0.4901256
4640.0, 0.48940235
4650.0, 0.48868132
4660.0, 0.48796293
4670.0, 0.48724696
4680.0, 0.48653337
4690.0, 0.4858221
4700.0, 0.4851133
4710.0, 0.4844069
4720.0, 0.48370284
4730.0, 0.48300102
4740.0, 0.4823017
4750.0, 0.48160455
4760.0, 0.48090982
4770.0, 0.4802175
4780.0, 0.47952726
4790.0, 0.47883937
4800.0, 0.47815374
4810.0, 0.47747037
4820.0, 0.4767893
4830.0, 0.47611034
4840.0, 0.47543374
4850.0, 0.47475922
4860.0, 0.47408697
4870.0, 0.47341692
4880.0, 0.47274908
4890.0, 0.47208333
4900.0, 0.47141972
4910.0, 0.47075832
4920.0, 0.470099
4930.0, 0.46944183
4940.0, 0.46878678
4950.0, 0.46813375
4960.0, 0.46748295
4970.0, 0.4668341
4980.0, 0.46618736
4990.0, 0.4655427
5000.0, 0.4649001
5010.0, 0.46425954
5020.0, 0.46362096
5030.0, 0.46298438
5040.0, 0.4623499
5050.0, 0.46171734
5060.0, 0.46108684
5070.0, 0.46045828
5080.0, 0.4598317
5090.0, 0.459207
5100.0, 0.45858437
5110.0, 0.45796368
5120.0, 0.4573448
5130.0, 0.45672798
5140.0, 0.45611298
5150.0, 0.45549986
5160.0, 0.45488876
5170.0, 0.4542794
5180.0, 0.45367205
5190.0, 0.4530665
5200.0, 0.4524628
5210.0, 0.45186105
5220.0, 0.45126104
5230.0, 0.45066285
5240.0, 0.45006654
5250.0, 0.44947198
5260.0, 0.44887927
5270.0, 0.44828835
5280.0, 0.4476992
5290.0, 0.4471119
5300.0, 0.44652632
5310.0, 0.4459425
5320.0, 0.44536045
5330.0, 0.44478014
5340.0, 0.44420162
5350.0, 0.44362476
5360.0, 0.44304964
5370.0, 0.44247627
5380.0, 0.44190452
5390.0, 0.44133455
5400.0, 0.44076625
5410.0, 0.4401996
5420.0, 0.43963465
5430.0, 0.43907148
5440.0, 0.43850982
5450.0, 0.43794984
5460.0, 0.43739158
5470.0, 0.4368348
5480.0, 0.4362798
5490.0, 0.43572646
5500.0, 0.4351746
5510.0, 0.4346244
5520.0, 0.4340758
5530.0, 0.43352875
5540.0, 0.43298346
5550.0, 0.43243957
5560.0, 0.4318973
5570.0, 0.43135658
5580.0, 0.43081743
5590.0, 0.43027988
5600.0, 0.42974383
5610.0, 0.42920932
5620.0, 0.42867634
5630.0, 0.4281448
5640.0, 0.42761496
5650.0, 0.42708653
5660.0, 0.42655963
5670.0, 0.42603415
5680.0, 0.42551023
5690.0, 0.42498776
5700.0, 0.4244668
5710.0, 0.42394727
5720.0, 0.42342925
5730.0, 0.42291266
5740.0, 0.42239755
5750.0, 0.42188376
5760.0, 0.4213716
5770.0, 0.42086077
5780.0, 0.42035133
5790.0, 0.41984338
5800.0, 0.41933677
5810.0, 0.41883174
5820.0, 0.4183279
5830.0, 0.41782555
5840.0, 0.41732463
5850.0, 0.416825
5860.0, 0.41632673
5870.0, 0.41582996
5880.0, 0.41533452
5890.0, 0.4148404
5900.0, 0.41434765
5910.0, 0.41385624
5920.0, 0.41336617
5930.0, 0.41287744
5940.0, 0.41239002
5950.0, 0.41190398
5960.0, 0.41141924
5970.0, 0.41093573
5980.0, 0.41045368
5990.0, 0.40997288
6000.0, 0.40949327
6010.0, 0.40901506
6020.0, 0.40853807
6030.0, 0.40806243
6040.0, 0.40758806
6050.0, 0.40711492
6060.0, 0.40664303
6070.0, 0.40617242
6080.0, 0.40570313
6090.0, 0.40523502
6100.0, 0.40476814
6110.0, 0.40430257
6120.0, 0.40383816
6130.0, 0.40337503
6140.0, 0.40291315
6150.0, 0.40245238
6160.0, 0.40199292
6170.0, 0.40153465
6180.0, 0.40107754
6190.0, 0.40062165
6200.0, 0.40016696
6210.0, 0.3997135
6220.0, 0.39926118
6230.0, 0.39880997
6240.0, 0.39836007
6250.0, 0.3979113
6260.0, 0.39746368
6270.0, 0.39701718
6280.0, 0.39657184
6290.0, 0.3961278
6300.0, 0.39568472
6310.0, 0.3952429
6320.0, 0.3948021
6330.0, 0.39436257
6340.0, 0.3939241
6350.0, 0.39348677
6360.0, 0.39305052
6370.0, 0.3926154
6380.0, 0.39218143
6390.0, 0.39174852
6400.0, 0.3913167
6410.0, 0.390886
6420.0, 0.39045644
6430.0, 0.3900279
6440.0, 0.38960052
6450.0, 0.3891741
6460.0, 0.3887488
6470.0, 0.38832465
6480.0, 0.3879015
6490.0, 0.38747942
6500.0, 0.3870584
6510.0, 0.38663846
6520.0, 0.38621944
6530.0, 0.38580164
6540.0, 0.38538483
6550.0, 0.38496903
6560.0, 0.38455433
6570.0, 0.38414055
6580.0, 0.3837279
6590.0, 0.38331622
6600.0, 0.38290554
6610.0, 0.38249588
6620.0, 0.38208726
6630.0, 0.38167968
6640.0, 0.3812731
6650.0, 0.38086745
6660.0, 0.38046286
6670.0, 0.3800592
6680.0, 0.37965652
6690.0, 0.3792549
6700.0, 0.3788542
6710.0, 0.37845448
6720.0, 0.37805575
6730.0, 0.377658
6740.0, 0.3772612
6750.0, 0.37686533
6760.0, 0.37647048
6770.0, 0.37607652
6780.0, 0.37568355
6790.0, 0.3752915
6800.0, 0.37490046
6810.0, 0.3745103
6820.0, 0.37412107
6830.0, 0.37373284
6840.0, 0.37334543
6850.0, 0.372959
6860.0, 0.37257355
6870.0, 0.37218893
6880.0, 0.3718053
6890.0, 0.37142253
6900.0, 0.3710407
6910.0, 0.3706598
6920.0, 0.3702797
6930.0, 0.36990058
6940.0, 0.36952236
6950.0, 0.369145
6960.0, 0.36876854
6970.0, 0.36839294
6980.0, 0.36801827
6990.0, 0.36764443
7000.0, 0.36727148
7010.0, 0.36689946
7020.0, 0.36652827
7030.0, 0.3661579
7040.0, 0.36578846
7050.0, 0.36541986
7060.0, 0.3650521
7070.0, 0.36468518
7080.0, 0.36431915
7090.0, 0.36395398
7100.0, 0.36358958
7110.0, 0.3632261
7120.0, 0.36286342
7130.0, 0.3625016
7140.0, 0.36214057
7150.0, 0.3617804
7160.0, 0.36142108
7170.0, 0.36106256
7180.0, 0.36070484
7190.0, 0.3603479
7200.0, 0.35999188
7210.0, 0.35963663
7220.0, 0.3592822
7230.0, 0.35892853
7240.0, 0.3585757
7250.0, 0.35822362
7260.0, 0.35787237
7270.0, 0.35752192
7280.0, 0.35717225
7290.0, 0.3568234
7300.0, 0.3564753
7310.0, 0.356128
7320.0, 0.35578144
7330.0, 0.35543582
7340.0, 0.35509077
7350.0, 0.3547466
7360.0, 0.35440317
7370.0, 0.3540605
7380.0, 0.35371864
7390.0, 0.3533775
7400.0, 0.35303715
7410.0, 0.35269752
7420.0, 0.3523586
7430.0, 0.35202053
7440.0, 0.3516832
7450.0, 0.3513466
7460.0, 0.35101074
7470.0, 0.35067558
7480.0, 0.3503412
7490.0, 0.35000753
7500.0, 0.3496746
7510.0, 0.34934238
7520.0, 0.34901094
7530.0, 0.3486802
7540.0, 0.3483502
7550.0, 0.34802094
7560.0, 0.34769237
7570.0, 0.3473645
7580.0, 0.34703735
7590.0, 0.34671086
7600.0, 0.34638518
7610.0, 0.34606016
7620.0, 0.34573582
7630.0, 0.3454122
7640.0, 0.34508932
7650.0, 0.34476706
7660.0, 0.34444562
7670.0, 0.34412476
7680.0, 0.34380463
7690.0, 0.34348515
7700.0, 0.34316638
7710.0, 0.3428483
7720.0, 0.3425309
7730.0, 0.34221414
7740.0, 0.3418981
7750.0, 0.34158272
7760.0, 0.34126803
7770.0, 0.340954
7780.0, 0.34064063
7790.0, 0.34032795
7800.0, 0.34001586
7810.0, 0.33970454
7820.0, 0.33939376
7830.0, 0.33908373
7840.0, 0.3387743
7850.0, 0.33846554
7860.0, 0.33815742
7870.0, 0.33784992
7880.0, 0.3375432
7890.0, 0.33723697
7900.0, 0.33693144
7910.0, 0.33662656
7920.0, 0.33632225
7930.0, 0.33601868
7940.0, 0.33571565
7950.0, 0.3354133
7960.0, 0.33511156
7970.0, 0.33481047
7980.0, 0.33450997
7990.0, 0.3342102
8000.0, 0.33391094
8010.0, 0.33361232
8020.0, 0.3333143
8030.0, 0.33301693
8040.0, 0.3327201
8050.0, 0.33242396
8060.0, 0.33212838
8070.0, 0.33183345
8080.0, 0.33153912
8090.0, 0.33124536
8100.0, 0.33095223
8110.0, 0.33065975
8120.0, 0.33036777
8130.0, 0.3300764
8140.0, 0.32978567
8150.0, 0.32949552
8160.0, 0.32920593
8170.0, 0.32891694
8180.0, 0.32862854
8190.0, 0.32834068
8200.0, 0.32805344
8210.0, 0.32776687
8220.0, 0.32748073
8230.0, 0.32719526
8240.0, 0.32691038
8250.0, 0.32662597
8260.0, 0.3263422
8270.0, 0.326059
8280.0, 0.32577637
8290.0, 0.32549423
8300.0, 0.32521275
8310.0, 0.32493177
8320.0, 0.32465142
8330.0, 0.32437155
8340.0, 0.32409233
8350.0, 0.32381362
8360.0, 0.3235354
8370.0, 0.3232578
8380.0, 0.32298073
8390.0, 0.3227042
8400.0, 0.32242826
8410.0, 0.32215282
8420.0, 0.32187796
8430.0, 0.3216036
8440.0, 0.32132986
8450.0, 0.32105657
8460.0, 0.3207838
8470.0, 0.32051164
8480.0, 0.32024002
8490.0, 0.31996888
8500.0, 0.3196982
8510.0, 0.31942818
8520.0, 0.31915864
8530.0, 0.31888965
8540.0, 0.3186212
8550.0, 0.31835318
8560.0, 0.31808573
8570.0, 0.31781885
8580.0, 0.3175524
8590.0, 0.3172865
8600.0, 0.3170211
8610.0, 0.31675625
8620.0, 0.3164919
8630.0, 0.31622803
8640.0, 0.3159647
8650.0, 0.31570193
8660.0, 0.31543955
8670.0, 0.31517774
8680.0, 0.3149164
8690.0, 0.3146556
8700.0, 0.31439522
8710.0, 0.31413543
8720.0, 0.31387612
8730.0, 0.3136173
8740.0, 0.3133589
8750.0, 0.31310108
8760.0, 0.31284374
8770.0, 0.31258687
8780.0, 0.31233048
8790.0, 0.31207457
8800.0, 0.31181914
8810.0, 0.31156424
8820.0, 0.31130975
8830.0, 0.31105578
8840.0, 0.31080234
8850.0, 0.31054926
8860.0, 0.31029677
8870.0, 0.31004468
8880.0, 0.3097931
8890.0, 0.30954197
8900.0, 0.30929133
8910.0, 0.30904114
8920.0, 0.30879143
8930.0, 0.30854216
8940.0, 0.3082934
8950.0, 0.30804506
8960.0, 0.30779725
8970.0, 0.3075498
8980.0, 0.30730295
8990.0, 0.30705646
9000.0, 0.3068104
9010.0, 0.30656487
9020.0, 0.3063197
9030.0, 0.3060751
9040.0, 0.30583087
9050.0, 0.30558714
9060.0, 0.30534375
9070.0, 0.30510092
9080.0, 0.3048585
9090.0, 0.30461657
9100.0, 0.30437502
9110.0, 0.30413395
9120.0, 0.30389327
9130.0, 0.3036531
9140.0, 0.30341336
9150.0, 0.30317405
9160.0, 0.30293512
9170.0, 0.30269662
9180.0, 0.30245864
9190.0, 0.302221
9200.0, 0.30198392
9210.0, 0.30174714
9220.0, 0.30151087
9230.0, 0.301275
9240.0, 0.30103958
9250.0, 0.30080453
9260.0, 0.30056992
9270.0, 0.30033568
9280.0, 0.30010203
9290.0, 0.29986867
9300.0, 0.29963568
9310.0, 0.29940325
9320.0, 0.29917118
9330.0, 0.29893956
9340.0, 0.29870826
9350.0, 0.2984774
9360.0, 0.298247
9370.0, 0.298017
9380.0, 0.29778743
9390.0, 0.29755822
9400.0, 0.29732937
9410.0, 0.29710105
9420.0, 0.29687306
9430.0, 0.2966455
9440.0, 0.29641834
9450.0, 0.2961916
9460.0, 0.29596522
9470.0, 0.29573923
9480.0, 0.2955137
9490.0, 0.2952885
9500.0, 0.2950637
9510.0, 0.29483938
9520.0, 0.29461533
9530.0, 0.29439178
9540.0, 0.29416862
9550.0, 0.2939458
9560.0, 0.29372337
9570.0, 0.29350135
9580.0, 0.29327974
9590.0, 0.29305845
9600.0, 0.29283756
9610.0, 0.2926171
9620.0, 0.29239702
9630.0, 0.2921773
9640.0, 0.29195797
9650.0, 0.29173905
9660.0, 0.29152045
9670.0, 0.29130223
9680.0, 0.29108444
9690.0, 0.29086694
9700.0, 0.2906499
9710.0, 0.2904332
9720.0, 0.2902169
9730.0, 0.29000095
9740.0, 0.28978541
9750.0, 0.2895702
9760.0, 0.28935537
9770.0, 0.28914085
9780.0, 0.28892678
9790.0, 0.28871304
9800.0, 0.28849965
9810.0, 0.2882867
9820.0, 0.28807405
9830.0, 0.28786176
9840.0, 0.28764987
9850.0, 0.28743827
9860.0, 0.2872271
9870.0, 0.28701624
9880.0, 0.28680578
9890.0, 0.28659567
9900.0, 0.28638586
9910.0, 0.28617647
9920.0, 0.28596744
9930.0, 0.2857587
9940.0, 0.2855504
9950.0, 0.28534237
9960.0, 0.28513467
9970.0, 0.2849274
9980.0, 0.28472048
9990.0, 0.28451383
10000.0, 0.28430757
10010.0, 0.2841017
10020.0, 0.28389606
10030.0, 0.28369084
10040.0, 0.283486
10050.0, 0.28328142
10060.0, 0.28307724
10070.0, 0.28287336
10080.0, 0.28266987
10090.0, 0.28246668
10100.0, 0.28226382
10110.0, 0.28206134
10120.0, 0.28185916
10130.0, 0.2816573
10140.0, 0.2814558
10150.0, 0.28125462
10160.0, 0.2810538
10170.0, 0.2808533
10180.0, 0.2806531
10190.0, 0.28045326
10200.0, 0.28025374
10210.0, 0.28005457
10220.0, 0.2798557
10230.0, 0.27965716
10240.0, 0.27945894
10250.0, 0.27926108
10260.0, 0.2790635
10270.0, 0.27886623
10280.0, 0.2786694
10290.0, 0.27847275
10300.0, 0.2782765
10310.0, 0.27808052
10320.0, 0.2778849
10330.0, 0.2776896
10340.0, 0.2774946
10350.0, 0.27729988
10360.0, 0.2771055
10370.0, 0.27691144
10380.0, 0.27671772
10390.0, 0.2765243
10400.0, 0.27633125
10410.0, 0.27613845
10420.0, 0.2759459
10430.0, 0.2757537
10440.0, 0.2755619
10450.0, 0.2753703
10460.0, 0.27517906
10470.0, 0.27498809
10480.0, 0.27479747
10490.0, 0.27460712
10500.0, 0.27441707
10510.0, 0.27422735
10520.0, 0.27403796
10530.0, 0.27384886
10540.0, 0.27366
10550.0, 0.2734715
10560.0, 0.27328324
10570.0, 0.27309534
10580.0, 0.27290776
10590.0, 0.2727204
10600.0, 0.27253336
10610.0, 0.27234668
10620.0, 0.2721602
10630.0, 0.27197412
10640.0, 0.27178827
10650.0, 0.27160272
10660.0, 0.27141747
10670.0, 0.2712325
10680.0, 0.27104783
10690.0, 0.2708634
10700.0, 0.27067932
10710.0, 0.27049553
10720.0, 0.27031204
10730.0, 0.2701288
10740.0, 0.26994586
10750.0, 0.2697632
10760.0, 0.26958084
10770.0, 0.26939875
