Energy (in eV), SEEP yield of material ITOC-NASCAP at incidence 90.0 degree
   X,       Y
0.0, 0.0
200.0, 4.812021
400.0, 10.191295
600.0, 14.538461
800.0, 20.351973
1000.0, 25.390142
1200.0, 30.691748
1400.0, 34.67365
1600.0, 40.372574
1800.0, 44.53433
2000.0, 50.617653
2200.0, 54.966526
2400.0, 59.366215
2600.0, 65.94653
2800.0, 70.53126
3000.0, 75.16874
3200.0, 79.85972
3400.0, 84.604546
3600.0, 89.403244
3800.0, 94.25568
4000.0, 99.16151
4200.0, 104.12029
4400.0, 109.13152
4600.0, 114.194534
4800.0, 119.30876
5000.0, 124.47346
5200.0, 129.68793
5400.0, 134.95148
5600.0, 140.26334
5800.0, 145.62274
6000.0, 151.02902
6200.0, 156.4814
6400.0, 161.97908
6600.0, 164.2367
6800.0, 169.77869
7000.0, 175.36473
7200.0, 180.99406
7400.0, 186.66603
7600.0, 188.88202
7800.0, 194.59673
8000.0, 200.35258
8200.0, 206.14897
8400.0, 211.98518
8600.0, 214.168
8800.0, 220.04483
9000.0, 225.96016
9200.0, 231.91324
9400.0, 234.06639
9600.0, 240.0585
9800.0, 246.08705
10000.0, 252.15152
10200.0, 254.2782
10400.0, 260.37988
10600.0, 266.5162
10800.0, 272.68665
11000.0, 274.78918
11200.0, 280.99506
11400.0, 287.23373
11600.0, 289.31186
11800.0, 295.58502
12000.0, 301.8898
12200.0, 303.9449
12400.0, 310.28302
12600.0, 316.65164
12800.0, 323.05032
13000.0, 325.08563
13200.0, 331.51593
13400.0, 337.97522
13600.0, 339.98956
13800.0, 346.47943
14000.0, 352.99725
14200.0, 354.99152
14400.0, 361.53873
14600.0, 368.11307
14800.0, 370.08792
15000.0, 376.69067
15200.0, 383.31946
15400.0, 385.2755
15600.0, 391.93173
15800.0, 393.8678
16000.0, 400.5509
16200.0, 407.25873
16400.0, 409.17712
16600.0, 415.91095
16800.0, 422.6686
17000.0, 424.56964
17200.0, 431.35236
17400.0, 438.15805
17600.0, 440.04218
17800.0, 446.87198
18000.0, 453.72403
18200.0, 455.59155
18400.0, 462.46692
18600.0, 464.3167
18800.0, 471.21475
19000.0, 478.13385
19200.0, 479.96783
19400.0, 486.909
19600.0, 493.8704
19800.0, 495.68857
20000.0, 502.67114
20200.0, 504.47266
20400.0, 511.476
20600.0, 518.49866
20800.0, 520.2849
21000.0, 527.32745
21200.0, 529.0977
21400.0, 536.1599
21600.0, 543.24036
21800.0, 544.99567
22000.0, 552.095
22200.0, 559.212
22400.0, 560.9527
22600.0, 568.0877
22800.0, 569.8132
23000.0, 576.96594
23200.0, 584.13556
23400.0, 585.84656
23600.0, 593.03326
23800.0, 594.7295
24000.0, 601.9328
24200.0, 609.1522
24400.0, 610.8342
24600.0, 618.0697
24800.0, 619.7373
25000.0, 626.98846
25200.0, 634.25476
25400.0, 635.9086
25600.0, 643.18994
25800.0, 644.82965
26000.0, 652.126
26200.0, 659.43665
26400.0, 661.0627
26600.0, 668.3876
26800.0, 669.9998
27000.0, 677.3387
27200.0, 684.6912
27400.0, 686.29
27600.0, 693.6559
27800.0, 695.2413
28000.0, 702.62024
28200.0, 710.0123
28400.0, 711.5843
28600.0, 718.9889
28800.0, 720.54785
29000.0, 727.9647
29200.0, 729.51086
29400.0, 736.93976
29600.0, 744.38074
29800.0, 745.91376
30000.0, 753.3662
30200.0, 754.88654
30400.0, 762.35046
30600.0, 769.82587
30800.0, 771.3331
31000.0, 778.81934
31200.0, 780.3142
31400.0, 787.81104
31600.0, 795.3187
31800.0, 796.8009
32000.0, 804.3187
32200.0, 805.78864
32400.0, 813.3164
32600.0, 814.7742
32800.0, 822.3117
33000.0, 829.8595
33200.0, 831.30457
33400.0, 838.86163
33600.0, 840.29486
33800.0, 847.8609
34000.0, 855.43665
34200.0, 856.8574
34400.0, 864.4418
34600.0, 865.8509
34800.0, 873.4437
35000.0, 874.8414
35200.0, 882.4427
35400.0, 890.05273
35600.0, 891.4379
35800.0, 899.05615
36000.0, 900.4299
36200.0, 908.0557
36400.0, 915.68994
36600.0, 917.0516
36800.0, 924.6934
37000.0, 926.04376
37200.0, 933.6927
37400.0, 935.03186
37600.0, 942.68787
37800.0, 950.35175
38000.0, 951.67896
38200.0, 959.34937
38400.0, 960.6658
38600.0, 968.34283
38800.0, 976.02747
39000.0, 977.3317
39200.0, 985.0226
39400.0, 986.316
39600.0, 994.0128
39800.0, 995.2956
40000.0, 1002.9985
40200.0, 1010.7082
40400.0, 1011.9791
40600.0, 1019.6945
40800.0, 1020.95483
41000.0, 1028.6758
41200.0, 1036.4032
41400.0, 1037.6517
41600.0, 1045.3843
41800.0, 1046.6226
42000.0, 1054.3601
42200.0, 1055.588
42400.0, 1063.3306
42600.0, 1071.0792
42800.0, 1072.2954
43000.0, 1080.0488
43200.0, 1081.2549
43400.0, 1089.0126
43600.0, 1090.2086
43800.0, 1097.9706
44000.0, 1105.7384
44200.0, 1106.923
44400.0, 1114.695
44600.0, 1115.8695
44800.0, 1123.6453
45000.0, 1131.4265
45200.0, 1132.5897
45400.0, 1140.3748
45600.0, 1141.5281
45800.0, 1149.3165
46000.0, 1150.4602
46200.0, 1158.2523
46400.0, 1166.0493
46600.0, 1167.1815
46800.0, 1174.9819
47000.0, 1176.1045
47200.0, 1183.9081
47400.0, 1191.7162
47600.0, 1192.8279
47800.0, 1200.6387
48000.0, 1201.7407
48200.0, 1209.5547
48400.0, 1210.6473
48600.0, 1218.464
48800.0, 1226.285
49000.0, 1227.3665
49200.0, 1235.19
49400.0, 1236.2621
49600.0, 1244.0883
49800.0, 1251.9181
50000.0, 1252.9792
50200.0, 1260.8115
50400.0, 1261.8636
50600.0, 1269.6979
50800.0, 1270.7407
51000.0, 1278.5773
51200.0, 1286.4174
51400.0, 1287.4493
51600.0, 1295.2913
51800.0, 1296.3143
52000.0, 1304.1581
52200.0, 1312.0054
52400.0, 1313.0176
52600.0, 1320.8666
52800.0, 1321.8698
53000.0, 1329.7202
53200.0, 1337.574
53400.0, 1338.5663
53600.0, 1346.4215
53800.0, 1347.4053
54000.0, 1355.2616
54200.0, 1356.2365
54400.0, 1364.094
54600.0, 1371.9545
54800.0, 1372.9188
55000.0, 1380.7803
55200.0, 1381.7361
55400.0, 1389.5985
55600.0, 1397.4639
55800.0, 1398.409
56000.0, 1406.275
56200.0, 1407.2117
56400.0, 1415.0786
56600.0, 1416.0067
56800.0, 1423.8743
57000.0, 1431.744
57200.0, 1432.6619
57400.0, 1440.5323
57600.0, 1441.4417
57800.0, 1449.3127
58000.0, 1457.1859
58200.0, 1458.0848
58400.0, 1465.9585
58600.0, 1466.8494
58800.0, 1474.7231
59000.0, 1482.5991
59200.0, 1483.4796
59400.0, 1491.3558
59600.0, 1492.2281
59800.0, 1500.1041
60000.0, 1507.9824
60200.0, 1508.8445
60400.0, 1516.7225
60600.0, 1517.5768
60800.0, 1525.4546
61000.0, 1526.3007
61200.0, 1534.1783
61400.0, 1542.0577
61600.0, 1542.8938
61800.0, 1550.773
62000.0, 1551.6011
62200.0, 1559.4796
62400.0, 1567.3601
62600.0, 1568.1782
62800.0, 1576.0582
63000.0, 1576.8684
63200.0, 1584.7477
63400.0, 1592.6284
63600.0, 1593.429
63800.0, 1601.3092
64000.0, 1602.1017
64200.0, 1609.9812
64400.0, 1617.8618
64600.0, 1618.6448
64800.0, 1626.5247
65000.0, 1627.2999
65200.0, 1635.179
65400.0, 1643.0591
65600.0, 1643.8247
65800.0, 1651.7039
66000.0, 1652.4618
66200.0, 1660.3402
66400.0, 1668.2195
66600.0, 1668.9675
66800.0, 1676.8458
67000.0, 1677.5864
67200.0, 1685.4637
67400.0, 1693.3418
67600.0, 1694.0728
67800.0, 1701.9496
68000.0, 1702.6733
68200.0, 1710.5491
68400.0, 1718.425
68600.0, 1719.1393
68800.0, 1727.0143
69000.0, 1727.7211
69200.0, 1735.5946
69400.0, 1743.4688
69600.0, 1744.1661
69800.0, 1752.0391
70000.0, 1752.7291
70200.0, 1760.6002
70400.0, 1768.4722
70600.0, 1769.153
70800.0, 1777.0232
71000.0, 1777.6967
71200.0, 1785.5653
71400.0, 1793.4343
71600.0, 1794.0984
71800.0, 1801.9658
72000.0, 1802.623
72200.0, 1810.4885
72400.0, 1818.3544
72600.0, 1819.0023
72800.0, 1826.8665
73000.0, 1827.5073
73200.0, 1835.3696
73400.0, 1843.2319
73600.0, 1843.8638
73800.0, 1851.7245
74000.0, 1852.3492
74200.0, 1860.2076
74400.0, 1868.0663
74600.0, 1868.6821
74800.0, 1876.5387
75000.0, 1884.3956
75200.0, 1885.0023
75400.0, 1892.8568
75600.0, 1893.4569
75800.0, 1901.3093
76000.0, 1909.1617
76200.0, 1909.7529
76400.0, 1917.6029
76600.0, 1918.1873
76800.0, 1926.0354
77000.0, 1933.8833
77200.0, 1934.4589
77400.0, 1942.3044
77600.0, 1942.8733
77800.0, 1950.7166
78000.0, 1958.5597
78200.0, 1959.1195
78400.0, 1966.9602
78600.0, 1967.5135
78800.0, 1975.3519
79000.0, 1983.1902
79200.0, 1983.7349
79400.0, 1991.5703
79600.0, 1999.4055
79800.0, 1999.9414
80000.0, 2007.7743
80200.0, 2008.3038
80400.0, 2016.1342
80600.0, 2023.9641
80800.0, 2024.4847
81000.0, 2032.3123
81200.0, 2032.8268
81400.0, 2040.6511
81600.0, 2048.4753
81800.0, 2048.9814
82000.0, 2056.8027
82200.0, 2064.6235
82400.0, 2065.121
82600.0, 2072.9395
82800.0, 2073.4304
83000.0, 2081.246
83200.0, 2089.061
83400.0, 2089.5437
83600.0, 2097.356
83800.0, 2105.1675
84000.0, 2105.6416
84200.0, 2113.4504
84400.0, 2113.9185
84600.0, 2121.724
84800.0, 2129.5293
85000.0, 2129.9893
85200.0, 2137.7913
85400.0, 2138.245
85600.0, 2146.0444
85800.0, 2153.843
86000.0, 2154.2883
86200.0, 2162.084
86400.0, 2169.8787
86600.0, 2170.3157
86800.0, 2178.108
87000.0, 2178.5388
87200.0, 2186.3276
87400.0, 2194.1155
87600.0, 2194.5386
87800.0, 2202.3235
88000.0, 2210.1077
88200.0, 2210.5225
88400.0, 2218.303
88600.0, 2218.712
88800.0, 2226.49
89000.0, 2234.267
89200.0, 2234.6677
89400.0, 2242.4414
89600.0, 2250.214
89800.0, 2250.607
90000.0, 2258.3765
90200.0, 2258.7634
90400.0, 2266.5298
90600.0, 2274.2952
90800.0, 2274.674
91000.0, 2282.4365
91200.0, 2290.1973
91400.0, 2290.5686
91600.0, 2298.3262
91800.0, 2298.6917
92000.0, 2306.4463
92200.0, 2314.1995
92400.0, 2314.557
92600.0, 2322.3071
92800.0, 2330.056
93000.0, 2330.4058
93200.0, 2338.1511
93400.0, 2345.8958
93600.0, 2346.2375
93800.0, 2353.9785
94000.0, 2354.3152
94200.0, 2362.0527
94400.0, 2369.7893
94600.0, 2370.1182
94800.0, 2377.8506
95000.0, 2385.5825
95200.0, 2385.9033
95400.0, 2393.6318
95600.0, 2393.947
95800.0, 2401.6719
96000.0, 2409.3958
96200.0, 2409.7036
96400.0, 2417.4238
96600.0, 2425.1423
96800.0, 2425.4424
97000.0, 2433.1582
97200.0, 2440.8718
97400.0, 2441.1646
97600.0, 2448.875
97800.0, 2449.162
98000.0, 2456.8694
98200.0, 2464.5747
98400.0, 2464.8545
98600.0, 2472.5564
98800.0, 2480.2568
99000.0, 2480.5293
99200.0, 2488.226
99400.0, 2495.9216
99600.0, 2496.1868
99800.0, 2503.8787
100000.0, 2504.1382
