Energy (in eV), SEEP yield of material CFRP-NASCAP at isotropic incidence
   X,       Y
0.0, 0.0
200.0, 0.3232357
400.0, 0.47649613
600.0, 0.59361845
800.0, 0.6919406
1000.0, 0.7781965
1200.0, 0.8558458
1400.0, 0.92694676
1600.0, 0.9928428
1800.0, 1.0544685
2000.0, 1.1125056
2200.0, 1.1674694
2400.0, 1.2197609
2600.0, 1.2696998
2800.0, 1.3175452
3000.0, 1.3635117
3200.0, 1.4077783
3400.0, 1.4504972
3600.0, 1.4917984
3800.0, 1.5317943
4000.0, 1.5705829
4200.0, 1.6082506
4400.0, 1.6448728
4600.0, 1.6805177
4800.0, 1.7152452
5000.0, 1.7491101
5200.0, 1.7821611
5400.0, 1.8144428
5600.0, 1.8459952
5800.0, 1.8768557
6000.0, 1.9070578
6200.0, 1.9366328
6400.0, 1.965609
6600.0, 1.9940131
6800.0, 2.0218694
7000.0, 2.0492008
7200.0, 2.0760288
7400.0, 2.102373
7600.0, 2.1282508
7800.0, 2.153681
8000.0, 2.1786795
8200.0, 2.2032607
8400.0, 2.2274396
8600.0, 2.2512302
8800.0, 2.2746437
9000.0, 2.297694
9200.0, 2.320391
9400.0, 2.3427463
9600.0, 2.36477
9800.0, 2.386472
10000.0, 2.4078612
10200.0, 2.4289465
10400.0, 2.449737
10600.0, 2.4702394
10800.0, 2.490463
11000.0, 2.5104136
11200.0, 2.530099
11400.0, 2.5495253
11600.0, 2.5686998
11800.0, 2.5876284
12000.0, 2.6063166
12200.0, 2.6247702
12400.0, 2.6429949
12600.0, 2.6609952
12800.0, 2.6787775
13000.0, 2.6963446
13200.0, 2.7137036
13400.0, 2.7308574
13600.0, 2.7478108
13800.0, 2.7645679
14000.0, 2.7811325
14200.0, 2.7975094
14400.0, 2.8137014
14600.0, 2.8297124
14800.0, 2.8455465
15000.0, 2.8612065
15200.0, 2.8766956
15400.0, 2.8920176
15600.0, 2.9071753
15800.0, 2.922172
16000.0, 2.93701
16200.0, 2.9516928
16400.0, 2.966223
16600.0, 2.9806027
16800.0, 2.9948351
17000.0, 3.0089228
17200.0, 3.0228677
17400.0, 3.0366726
17600.0, 3.0503395
17800.0, 3.0638723
18000.0, 3.0772705
18200.0, 3.090538
18400.0, 3.103676
18600.0, 3.1166878
18800.0, 3.129573
19000.0, 3.1423373
19200.0, 3.1549788
19400.0, 3.1675014
19600.0, 3.1799066
19800.0, 3.1921961
20000.0, 3.204371
20200.0, 3.2164333
20400.0, 3.228386
20600.0, 3.240228
20800.0, 3.2519634
21000.0, 3.2635922
21200.0, 3.2751172
21400.0, 3.2865376
21600.0, 3.2978578
21800.0, 3.309076
22000.0, 3.3201966
22200.0, 3.3312187
22400.0, 3.3421447
22600.0, 3.352976
22800.0, 3.3637128
23000.0, 3.3743577
23200.0, 3.3849103
23400.0, 3.3953736
23600.0, 3.4057472
23800.0, 3.4160335
24000.0, 3.4262323
24200.0, 3.4363453
24400.0, 3.4463735
24600.0, 3.456319
24800.0, 3.4661818
25000.0, 3.4759614
25200.0, 3.4856622
25400.0, 3.4952824
25600.0, 3.5048242
25800.0, 3.5142882
26000.0, 3.523675
26200.0, 3.532986
26400.0, 3.5422223
26600.0, 3.551384
26800.0, 3.560472
27000.0, 3.5694883
27200.0, 3.5784326
27400.0, 3.5873055
27600.0, 3.596109
27800.0, 3.604843
28000.0, 3.6135082
28200.0, 3.6221056
28400.0, 3.630637
28600.0, 3.6391003
28800.0, 3.6474988
29000.0, 3.6558325
29200.0, 3.6641023
29400.0, 3.6723082
29600.0, 3.6804514
29800.0, 3.6885316
30000.0, 3.6965513
30200.0, 3.7045097
30400.0, 3.712408
30600.0, 3.7202466
30800.0, 3.7280257
31000.0, 3.7357469
31200.0, 3.74341
31400.0, 3.7510166
31600.0, 3.7585654
31800.0, 3.7660592
32000.0, 3.7734962
32200.0, 3.7808793
32400.0, 3.7882073
32600.0, 3.7954814
32800.0, 3.8027024
33000.0, 3.8098705
33200.0, 3.816986
33400.0, 3.8240497
33600.0, 3.8310623
33800.0, 3.8380237
34000.0, 3.8449352
34200.0, 3.8517962
34400.0, 3.8586078
34600.0, 3.8653708
34800.0, 3.8720849
35000.0, 3.8787513
35200.0, 3.8853695
35400.0, 3.8919408
35600.0, 3.898466
35800.0, 3.904944
36000.0, 3.9113767
36200.0, 3.9177635
36400.0, 3.9241054
36600.0, 3.930402
36800.0, 3.936655
37000.0, 3.942864
37200.0, 3.94903
37400.0, 3.955152
37600.0, 3.961232
37800.0, 3.967269
38000.0, 3.9732645
38200.0, 3.979218
38400.0, 3.98513
38600.0, 3.9910018
38800.0, 3.9968336
39000.0, 4.0026245
39200.0, 4.0083756
39400.0, 4.0140862
39600.0, 4.0197587
39800.0, 4.0253925
40000.0, 4.0309873
40200.0, 4.0365443
40400.0, 4.0420628
40600.0, 4.0475454
40800.0, 4.052989
41000.0, 4.058396
41200.0, 4.063766
41400.0, 4.0691
41600.0, 4.074398
41800.0, 4.079661
42000.0, 4.084888
42200.0, 4.09008
42400.0, 4.0952363
42600.0, 4.100359
42800.0, 4.105447
43000.0, 4.1105003
43200.0, 4.115522
43400.0, 4.1205077
43600.0, 4.125461
43800.0, 4.1303816
44000.0, 4.135269
44200.0, 4.140125
44400.0, 4.1449475
44600.0, 4.149739
44800.0, 4.154498
45000.0, 4.1592264
45200.0, 4.163923
45400.0, 4.168589
45600.0, 4.173223
45800.0, 4.1778283
46000.0, 4.182402
46200.0, 4.186947
46400.0, 4.191461
46600.0, 4.1959457
46800.0, 4.200402
47000.0, 4.2048283
47200.0, 4.2092257
47400.0, 4.213594
47600.0, 4.2179346
47800.0, 4.222246
48000.0, 4.22653
48200.0, 4.2307863
48400.0, 4.235015
48600.0, 4.239216
48800.0, 4.24339
49000.0, 4.247536
49200.0, 4.2516556
49400.0, 4.255749
49600.0, 4.259816
49800.0, 4.2638564
50000.0, 4.267871
50200.0, 4.2718587
50400.0, 4.2758226
50600.0, 4.27976
50800.0, 4.2836714
51000.0, 4.287558
51200.0, 4.29142
51400.0, 4.2952576
51600.0, 4.2990694
51800.0, 4.302857
52000.0, 4.3066216
52200.0, 4.310361
52400.0, 4.3140764
52600.0, 4.317768
52800.0, 4.321437
53000.0, 4.3250823
53200.0, 4.3287034
53400.0, 4.332301
53600.0, 4.335877
53800.0, 4.339431
54000.0, 4.34296
54200.0, 4.3464675
54400.0, 4.349953
54600.0, 4.353416
54800.0, 4.3568573
55000.0, 4.360276
55200.0, 4.363674
55400.0, 4.3670497
55600.0, 4.3704042
55800.0, 4.3737373
56000.0, 4.3770494
56200.0, 4.3803406
56400.0, 4.383611
56600.0, 4.38686
56800.0, 4.390089
57000.0, 4.3932967
57200.0, 4.396485
57400.0, 4.399654
57600.0, 4.402801
57800.0, 4.4059296
58000.0, 4.409038
58200.0, 4.412126
58400.0, 4.415195
58600.0, 4.4182453
58800.0, 4.421275
59000.0, 4.4242864
59200.0, 4.427279
59400.0, 4.430252
59600.0, 4.4332066
59800.0, 4.4361424
60000.0, 4.43906
60200.0, 4.441959
60400.0, 4.4448395
60600.0, 4.447702
60800.0, 4.4505463
61000.0, 4.4533734
61200.0, 4.4561815
61400.0, 4.4589725
61600.0, 4.4617457
61800.0, 4.4645023
62000.0, 4.467241
62200.0, 4.469961
62400.0, 4.4726653
62600.0, 4.4753523
62800.0, 4.4780226
63000.0, 4.480675
63200.0, 4.483312
63400.0, 4.4859324
63600.0, 4.4885354
63800.0, 4.4911222
64000.0, 4.4936924
64200.0, 4.4962473
64400.0, 4.4987855
64600.0, 4.501308
64800.0, 4.5038137
65000.0, 4.5063047
65200.0, 4.508779
65400.0, 4.5112386
65600.0, 4.513682
65800.0, 4.5161104
66000.0, 4.518523
66200.0, 4.5209203
66400.0, 4.5233026
66600.0, 4.52567
66800.0, 4.5280223
67000.0, 4.5303597
67200.0, 4.5326824
67400.0, 4.5349903
67600.0, 4.537283
67800.0, 4.539562
68000.0, 4.5418267
68200.0, 4.544077
68400.0, 4.546313
68600.0, 4.548534
68800.0, 4.5507407
69000.0, 4.5529346
69200.0, 4.555114
69400.0, 4.5572796
69600.0, 4.559432
69800.0, 4.56157
70000.0, 4.563694
70200.0, 4.565805
70400.0, 4.5679026
70600.0, 4.569987
70800.0, 4.5720577
71000.0, 4.5741153
71200.0, 4.576161
71400.0, 4.5781918
71600.0, 4.5802107
71800.0, 4.5822153
72000.0, 4.5842085
72200.0, 4.586189
72400.0, 4.5881557
72600.0, 4.5901103
72800.0, 4.592053
73000.0, 4.5939827
73200.0, 4.5959
73400.0, 4.5978045
73600.0, 4.5996976
73800.0, 4.601578
74000.0, 4.6034465
74200.0, 4.6053023
74400.0, 4.607147
74600.0, 4.6089797
74800.0, 4.6108003
75000.0, 4.612609
75200.0, 4.614406
75400.0, 4.616191
75600.0, 4.6179657
75800.0, 4.619728
76000.0, 4.6214795
76200.0, 4.623219
76400.0, 4.624948
76600.0, 4.626664
76800.0, 4.6283703
77000.0, 4.6300645
77200.0, 4.631748
77400.0, 4.633421
77600.0, 4.6350827
77800.0, 4.636734
78000.0, 4.6383743
78200.0, 4.6400027
78400.0, 4.6416216
78600.0, 4.6432295
78800.0, 4.6448264
79000.0, 4.646414
79200.0, 4.6479897
79400.0, 4.6495566
79600.0, 4.6511116
79800.0, 4.6526575
80000.0, 4.6541915
80200.0, 4.655717
80400.0, 4.6572313
80600.0, 4.6587358
80800.0, 4.66023
81000.0, 4.6617155
81200.0, 4.663191
81400.0, 4.6646557
81600.0, 4.666111
81800.0, 4.6675553
82000.0, 4.668991
82200.0, 4.6704173
82400.0, 4.6718335
82600.0, 4.673241
82800.0, 4.6746387
83000.0, 4.6760263
83200.0, 4.6774054
83400.0, 4.678775
83600.0, 4.680135
83800.0, 4.681485
84000.0, 4.6828265
84200.0, 4.6841593
84400.0, 4.6854825
84600.0, 4.6867976
84800.0, 4.6881022
85000.0, 4.6893983
85200.0, 4.6906857
85400.0, 4.6919646
85600.0, 4.693235
85800.0, 4.694496
86000.0, 4.6957483
86200.0, 4.696992
86400.0, 4.698228
86600.0, 4.6994534
86800.0, 4.700672
87000.0, 4.701881
87200.0, 4.703083
87400.0, 4.704275
87600.0, 4.7054596
87800.0, 4.7066355
88000.0, 4.7078037
88200.0, 4.708964
88400.0, 4.710114
88600.0, 4.711258
88800.0, 4.712393
89000.0, 4.7135196
89200.0, 4.714639
89400.0, 4.7157497
89600.0, 4.7168536
89800.0, 4.7179494
90000.0, 4.7190366
90200.0, 4.7201157
90400.0, 4.721188
90600.0, 4.7222524
90800.0, 4.723309
91000.0, 4.7243576
91200.0, 4.7253995
91400.0, 4.726433
91600.0, 4.727459
91800.0, 4.728477
92000.0, 4.7294893
92200.0, 4.7304926
92400.0, 4.731489
92600.0, 4.7324786
92800.0, 4.7334604
93000.0, 4.734434
93200.0, 4.7354026
93400.0, 4.7363625
93600.0, 4.737315
93800.0, 4.7382607
94000.0, 4.7392006
94200.0, 4.7401323
94400.0, 4.741057
94600.0, 4.7419744
94800.0, 4.7428856
95000.0, 4.743789
95200.0, 4.7446866
95400.0, 4.7455773
95600.0, 4.746461
95800.0, 4.7473373
96000.0, 4.7482076
96200.0, 4.749071
96400.0, 4.749927
96600.0, 4.750777
96800.0, 4.7516203
97000.0, 4.7524586
97200.0, 4.7532883
97400.0, 4.7541122
97600.0, 4.754929
97800.0, 4.7557397
98000.0, 4.7565446
98200.0, 4.757343
98400.0, 4.7581344
98600.0, 4.7589197
98800.0, 4.7597
99000.0, 4.760473
99200.0, 4.7612395
99400.0, 4.762
99600.0, 4.762754
99800.0, 4.763502
100000.0, 4.764244
