Energy (in eV), SEEE yield of material al2k-NASCAP at incidence 0.0 degree
   X,       Y
0.0, 0.0
10.0, 0.08542934
20.0, 0.1651075
30.0, 0.23972157
40.0, 0.30956024
50.0, 0.37481788
60.0, 0.43565577
70.0, 0.49222344
80.0, 0.54466784
90.0, 0.59313744
100.0, 0.63778406
110.0, 0.67876303
120.0, 0.7162329
130.0, 0.7503547
140.0, 0.78129196
150.0, 0.8092081
160.0, 0.8342673
170.0, 0.8566323
180.0, 0.87646395
190.0, 0.89392054
200.0, 0.9091569
210.0, 0.9223238
220.0, 0.93356746
230.0, 0.9430289
240.0, 0.95084393
250.0, 0.957142
260.0, 0.96204734
270.0, 0.9656775
280.0, 0.9681439
290.0, 0.9695518
300.0, 0.97
310.0, 0.96958166
320.0, 0.9683832
330.0, 0.96648496
340.0, 0.9639627
350.0, 0.9608853
360.0, 0.95731694
370.0, 0.9533167
380.0, 0.9489389
390.0, 0.94423276
400.0, 0.93924344
410.0, 0.9340124
420.0, 0.9285765
430.0, 0.92296994
440.0, 0.91722274
450.0, 0.9113623
460.0, 0.905413
470.0, 0.89939696
480.0, 0.89333314
490.0, 0.88723916
500.0, 0.8811303
510.0, 0.87501955
520.0, 0.8689188
530.0, 0.8628383
540.0, 0.8567867
550.0, 0.85077214
560.0, 0.8448005
570.0, 0.83887774
580.0, 0.83300835
590.0, 0.8271964
600.0, 0.82144487
610.0, 0.81575674
620.0, 0.8101336
630.0, 0.80457735
640.0, 0.7990891
650.0, 0.79366964
660.0, 0.78831947
670.0, 0.78303903
680.0, 0.77782804
690.0, 0.7726864
700.0, 0.76761395
710.0, 0.76260996
720.0, 0.75767386
730.0, 0.752805
740.0, 0.7480025
750.0, 0.7432656
760.0, 0.7385933
770.0, 0.7339847
780.0, 0.72943866
790.0, 0.7249543
800.0, 0.7205307
810.0, 0.71616656
820.0, 0.71186095
830.0, 0.70761293
840.0, 0.7034213
850.0, 0.699285
860.0, 0.69520324
870.0, 0.69117486
880.0, 0.6871989
890.0, 0.68327427
900.0, 0.67940015
910.0, 0.67557555
920.0, 0.6717996
930.0, 0.6680712
940.0, 0.6643897
950.0, 0.660754
960.0, 0.6571634
970.0, 0.653617
980.0, 0.650114
990.0, 0.6466537
1000.0, 0.6432351
1010.0, 0.6398576
1020.0, 0.63652027
1030.0, 0.6332227
1040.0, 0.62996393
1050.0, 0.62674326
1060.0, 0.62356013
1070.0, 0.6204137
1080.0, 0.61730355
1090.0, 0.61422896
1100.0, 0.61118925
1110.0, 0.6081838
1120.0, 0.6052121
1130.0, 0.6022735
1140.0, 0.5993675
1150.0, 0.5964935
1160.0, 0.59365106
1170.0, 0.59083945
1180.0, 0.5880583
1190.0, 0.585307
1200.0, 0.58258516
1210.0, 0.5798923
1220.0, 0.5772279
1230.0, 0.57459146
1240.0, 0.5719826
1250.0, 0.5694009
1260.0, 0.5668458
1270.0, 0.5643169
1280.0, 0.5618139
1290.0, 0.5593363
1300.0, 0.55688375
1310.0, 0.5544559
1320.0, 0.5520522
1330.0, 0.5496724
1340.0, 0.54731613
1350.0, 0.54498297
1360.0, 0.54267275
1370.0, 0.5403849
1380.0, 0.5381191
1390.0, 0.5358752
1400.0, 0.53365266
1410.0, 0.53145134
1420.0, 0.5292708
1430.0, 0.5271109
1440.0, 0.5249711
1450.0, 0.5228513
1460.0, 0.52075124
1470.0, 0.51867044
1480.0, 0.5166087
1490.0, 0.5145659
1500.0, 0.51254165
1510.0, 0.51053566
1520.0, 0.5085476
1530.0, 0.50657743
1540.0, 0.5046248
1550.0, 0.5026895
1560.0, 0.50077116
1570.0, 0.49886966
1580.0, 0.49698484
1590.0, 0.49511638
1600.0, 0.49326402
1610.0, 0.49142763
1620.0, 0.48960695
1630.0, 0.48780182
1640.0, 0.48601192
1650.0, 0.48423716
1660.0, 0.4824774
1670.0, 0.48073226
1680.0, 0.47900164
1690.0, 0.4772854
1700.0, 0.47558326
1710.0, 0.47389513
1720.0, 0.47222075
1730.0, 0.47055998
1740.0, 0.46891278
1750.0, 0.46727872
1760.0, 0.46565783
1770.0, 0.46404988
1780.0, 0.4624547
1790.0, 0.4608721
1800.0, 0.45930207
1810.0, 0.45774427
1820.0, 0.4561987
1830.0, 0.45466506
1840.0, 0.4531434
1850.0, 0.45163345
1860.0, 0.45013508
1870.0, 0.44864812
1880.0, 0.44717255
1890.0, 0.44570813
1900.0, 0.44425476
1910.0, 0.4428123
1920.0, 0.44138062
1930.0, 0.43995962
1940.0, 0.4385492
1950.0, 0.43714914
1960.0, 0.43575945
1970.0, 0.43437985
1980.0, 0.4330104
1990.0, 0.43165082
2000.0, 0.43030116
2010.0, 0.42896125
2020.0, 0.42763087
2030.0, 0.42631006
2040.0, 0.4249986
2050.0, 0.42369652
2060.0, 0.42240363
2070.0, 0.42111978
2080.0, 0.41984499
2090.0, 0.41857907
2100.0, 0.41732195
2110.0, 0.41607356
2120.0, 0.41483378
2130.0, 0.41360247
2140.0, 0.4123796
2150.0, 0.4111651
2160.0, 0.40995887
2170.0, 0.40876073
2180.0, 0.40757078
2190.0, 0.40638873
2200.0, 0.4052146
2210.0, 0.40404832
2220.0, 0.40288982
2230.0, 0.4017389
2240.0, 0.40059566
2250.0, 0.39945987
2260.0, 0.3983315
2270.0, 0.3972105
2280.0, 0.39609683
2290.0, 0.3949903
2300.0, 0.39389092
2310.0, 0.3927986
2320.0, 0.39171332
2330.0, 0.3906349
2340.0, 0.38956335
2350.0, 0.3884986
2360.0, 0.38744056
2370.0, 0.38638917
2380.0, 0.38534436
2390.0, 0.38430607
2400.0, 0.38327423
2410.0, 0.3822488
2420.0, 0.3812297
2430.0, 0.3802169
2440.0, 0.3792103
2450.0, 0.3782098
2460.0, 0.37721545
2470.0, 0.37622714
2480.0, 0.37524474
2490.0, 0.37426835
2500.0, 0.37329778
2510.0, 0.37233302
2520.0, 0.371374
2530.0, 0.37042075
2540.0, 0.36947313
2550.0, 0.3685311
2560.0, 0.36759457
2570.0, 0.3666636
2580.0, 0.36573803
2590.0, 0.36481792
2600.0, 0.36390308
2610.0, 0.36299357
2620.0, 0.3620893
2630.0, 0.36119026
2640.0, 0.36029634
2650.0, 0.35940754
2660.0, 0.35852385
2670.0, 0.35764515
2680.0, 0.35677138
2690.0, 0.3559026
2700.0, 0.35503867
2710.0, 0.35417962
2720.0, 0.35332534
2730.0, 0.35247585
2740.0, 0.35163105
2750.0, 0.35079095
2760.0, 0.34995547
2770.0, 0.34912458
2780.0, 0.3482983
2790.0, 0.34747648
2800.0, 0.34665915
2810.0, 0.3458463
2820.0, 0.34503782
2830.0, 0.34423372
2840.0, 0.34343392
2850.0, 0.34263846
2860.0, 0.34184724
2870.0, 0.34106022
2880.0, 0.3402774
2890.0, 0.33949873
2900.0, 0.33872417
2910.0, 0.33795372
2920.0, 0.33718732
2930.0, 0.33642492
2940.0, 0.33566648
2950.0, 0.334912
2960.0, 0.3341615
2970.0, 0.33341482
2980.0, 0.33267203
2990.0, 0.33193305
3000.0, 0.33119786
