Energy (in eV), SEEP yield of material al2k-NASCAP at isotropic incidence
   X,       Y
0.0, 0.0
200.0, 0.20555854
400.0, 0.29602522
600.0, 0.3652653
800.0, 0.42348835
1000.0, 0.47465283
1200.0, 0.5207907
1400.0, 0.5631102
1600.0, 0.60239923
1800.0, 0.6392058
2000.0, 0.6739291
2200.0, 0.7068707
2400.0, 0.7382652
2600.0, 0.76829946
2800.0, 0.7971249
3000.0, 0.82486635
3200.0, 0.8516289
3400.0, 0.87750083
3600.0, 0.9025575
3800.0, 0.92686516
4000.0, 0.95048004
4200.0, 0.97345245
4400.0, 0.99582666
4600.0, 1.0176417
4800.0, 1.0389326
5000.0, 1.0597308
5200.0, 1.0800648
5400.0, 1.0999602
5600.0, 1.1194403
5800.0, 1.1385264
6000.0, 1.157238
6200.0, 1.1755933
6400.0, 1.1936083
6600.0, 1.2112987
6800.0, 1.2286782
7000.0, 1.24576
7200.0, 1.2625562
7400.0, 1.2790785
7600.0, 1.2953372
7800.0, 1.311342
8000.0, 1.3271027
8200.0, 1.3426274
8400.0, 1.3579247
8600.0, 1.3730023
8800.0, 1.3878676
9000.0, 1.4025273
9200.0, 1.4169878
9400.0, 1.4312551
9600.0, 1.4453356
9800.0, 1.4592345
10000.0, 1.472957
10200.0, 1.4865081
10400.0, 1.4998927
10600.0, 1.5131154
10800.0, 1.5261806
11000.0, 1.5390922
11200.0, 1.5518543
11400.0, 1.5644705
11600.0, 1.5769445
11800.0, 1.5892801
12000.0, 1.6014801
12200.0, 1.6135483
12400.0, 1.625487
12600.0, 1.6372998
12800.0, 1.6489892
13000.0, 1.6605582
13200.0, 1.6720093
13400.0, 1.6833448
13600.0, 1.6945674
13800.0, 1.7056793
14000.0, 1.7166828
14200.0, 1.7275804
14400.0, 1.7383738
14600.0, 1.7490649
14800.0, 1.7596567
15000.0, 1.7701498
15200.0, 1.7805467
15400.0, 1.7908491
15600.0, 1.8010587
15800.0, 1.8111774
16000.0, 1.8212066
16200.0, 1.8311478
16400.0, 1.8410027
16600.0, 1.8507729
16800.0, 1.8604597
17000.0, 1.8700646
17200.0, 1.8795888
17400.0, 1.8890338
17600.0, 1.8984007
17800.0, 1.9076909
18000.0, 1.9169056
18200.0, 1.9260459
18400.0, 1.9351128
18600.0, 1.9441077
18800.0, 1.9530318
19000.0, 1.9618862
19200.0, 1.9706715
19400.0, 1.9793891
19600.0, 1.9880395
19800.0, 1.9966246
20000.0, 2.0051441
20200.0, 2.0136
20400.0, 2.0219927
20600.0, 2.0303235
20800.0, 2.038592
21000.0, 2.046801
21200.0, 2.05495
21400.0, 2.0630398
21600.0, 2.0710716
21800.0, 2.079046
22000.0, 2.086964
22200.0, 2.094826
22400.0, 2.1026328
22600.0, 2.110385
22800.0, 2.1180835
23000.0, 2.1257288
23200.0, 2.133322
23400.0, 2.140863
23600.0, 2.148353
23800.0, 2.1557922
24000.0, 2.1631815
24200.0, 2.1705217
24400.0, 2.177813
24600.0, 2.1850562
24800.0, 2.1922517
25000.0, 2.1994
25200.0, 2.2065015
25400.0, 2.2135572
25600.0, 2.2205677
25800.0, 2.2275329
26000.0, 2.2344537
26200.0, 2.2413306
26400.0, 2.248164
26600.0, 2.2549539
26800.0, 2.2617016
27000.0, 2.268407
27200.0, 2.275071
27400.0, 2.2816935
27600.0, 2.2882748
27800.0, 2.2948165
28000.0, 2.3013177
28200.0, 2.3077796
28400.0, 2.3142023
28600.0, 2.3205862
28800.0, 2.3269315
29000.0, 2.3332396
29200.0, 2.3395092
29400.0, 2.3457422
29600.0, 2.351938
29800.0, 2.3580978
30000.0, 2.3642206
30200.0, 2.3703084
30400.0, 2.3763602
30600.0, 2.3823771
30800.0, 2.388359
31000.0, 2.394307
31200.0, 2.4002206
31400.0, 2.4061005
31600.0, 2.4119465
31800.0, 2.41776
32000.0, 2.42354
32200.0, 2.4292877
32400.0, 2.4350028
32600.0, 2.4406862
32800.0, 2.4463377
33000.0, 2.4519582
33200.0, 2.4575474
33400.0, 2.4631054
33600.0, 2.468633
33800.0, 2.4741306
34000.0, 2.4795973
34200.0, 2.485035
34400.0, 2.4904425
34600.0, 2.4958215
34800.0, 2.5011709
35000.0, 2.5064914
35200.0, 2.5117834
35400.0, 2.5170472
35600.0, 2.522283
35800.0, 2.5274906
36000.0, 2.532671
36200.0, 2.5378237
36400.0, 2.5429494
36600.0, 2.5480485
36800.0, 2.5531201
37000.0, 2.5581656
37200.0, 2.5631845
37400.0, 2.5681777
37600.0, 2.5731447
37800.0, 2.5780864
38000.0, 2.5830016
38200.0, 2.587893
38400.0, 2.5927584
38600.0, 2.5975988
38800.0, 2.6024146
39000.0, 2.6072063
39200.0, 2.6119733
39400.0, 2.6167164
39600.0, 2.6214352
39800.0, 2.6261306
40000.0, 2.6308024
40200.0, 2.6354506
40400.0, 2.6400757
40600.0, 2.6446776
40800.0, 2.6492567
41000.0, 2.653813
41200.0, 2.6583464
41400.0, 2.662858
41600.0, 2.6673467
41800.0, 2.671814
42000.0, 2.676259
42200.0, 2.6806827
42400.0, 2.685084
42600.0, 2.6894648
42800.0, 2.6938238
43000.0, 2.6981616
43200.0, 2.7024784
43400.0, 2.7067747
43600.0, 2.7110498
43800.0, 2.7153046
44000.0, 2.7195387
44200.0, 2.723753
44400.0, 2.727947
44600.0, 2.732121
44800.0, 2.736275
45000.0, 2.7404091
45200.0, 2.7445238
45400.0, 2.7486196
45600.0, 2.752695
45800.0, 2.7567523
46000.0, 2.7607896
46200.0, 2.764809
46400.0, 2.7688084
46600.0, 2.7727902
46800.0, 2.7767527
47000.0, 2.780697
47200.0, 2.7846227
47400.0, 2.788531
47600.0, 2.7924201
47800.0, 2.796292
48000.0, 2.8001459
48200.0, 2.8039818
48400.0, 2.8078008
48600.0, 2.8116016
48800.0, 2.8153853
49000.0, 2.8191516
49200.0, 2.8229008
49400.0, 2.826633
49600.0, 2.8303478
49800.0, 2.8340464
50000.0, 2.8377273
50200.0, 2.8413925
50400.0, 2.8450408
50600.0, 2.8486726
50800.0, 2.8522882
51000.0, 2.8558872
51200.0, 2.8594706
51400.0, 2.8630376
51600.0, 2.866589
51800.0, 2.870124
52000.0, 2.873644
52200.0, 2.877148
52400.0, 2.880636
52600.0, 2.884109
52800.0, 2.8875666
53000.0, 2.891009
53200.0, 2.8944361
53400.0, 2.8978481
53600.0, 2.9012454
53800.0, 2.9046273
54000.0, 2.9079947
54200.0, 2.9113472
54400.0, 2.914685
54600.0, 2.9180079
54800.0, 2.9213166
55000.0, 2.9246116
55200.0, 2.9278915
55400.0, 2.931157
55600.0, 2.9344087
55800.0, 2.9376466
56000.0, 2.94087
56200.0, 2.9440799
56400.0, 2.947276
56600.0, 2.950458
56800.0, 2.9536264
57000.0, 2.956781
57200.0, 2.959922
57400.0, 2.9630508
57600.0, 2.966164
57800.0, 2.9692657
58000.0, 2.9723542
58200.0, 2.9754288
58400.0, 2.9784904
58600.0, 2.9815388
58800.0, 2.9845748
59000.0, 2.9875972
59200.0, 2.9906082
59400.0, 2.9936054
59600.0, 2.9965904
59800.0, 2.999562
60000.0, 3.002522
60200.0, 3.0054693
60400.0, 3.0084047
60600.0, 3.0113266
60800.0, 3.0142372
61000.0, 3.0171351
61200.0, 3.020021
61400.0, 3.022895
61600.0, 3.0257573
61800.0, 3.0286076
62000.0, 3.0314453
62200.0, 3.0342717
62400.0, 3.0370867
62600.0, 3.0398896
62800.0, 3.042681
63000.0, 3.0454602
63200.0, 3.0482292
63400.0, 3.0509856
63600.0, 3.0537314
63800.0, 3.0564659
64000.0, 3.0591886
64200.0, 3.0619001
64400.0, 3.0646012
64600.0, 3.0672908
64800.0, 3.0699694
65000.0, 3.0726368
65200.0, 3.0752938
65400.0, 3.0779395
65600.0, 3.0805743
65800.0, 3.0831988
66000.0, 3.0858123
66200.0, 3.0884159
66400.0, 3.0910075
66600.0, 3.0935895
66800.0, 3.0961614
67000.0, 3.0987222
67200.0, 3.1012723
67400.0, 3.103813
67600.0, 3.1063428
67800.0, 3.1088624
68000.0, 3.111372
68200.0, 3.113872
68400.0, 3.116361
68600.0, 3.1188407
68800.0, 3.1213095
69000.0, 3.1237693
69200.0, 3.1262195
69400.0, 3.128659
69600.0, 3.1310892
69800.0, 3.1335096
70000.0, 3.13592
70200.0, 3.1383212
70400.0, 3.1407127
70600.0, 3.1430948
70800.0, 3.1454673
71000.0, 3.1478302
71200.0, 3.1501837
71400.0, 3.1525283
71600.0, 3.1548624
71800.0, 3.1571884
72000.0, 3.159505
72200.0, 3.1618123
72400.0, 3.1641104
72600.0, 3.1663992
72800.0, 3.1686795
73000.0, 3.17095
73200.0, 3.173212
73400.0, 3.1754656
73600.0, 3.1777096
73800.0, 3.179945
74000.0, 3.1821716
74200.0, 3.1843896
74400.0, 3.1865978
74600.0, 3.1887987
74800.0, 3.1909907
75000.0, 3.1931741
75200.0, 3.1953483
75400.0, 3.1975143
75600.0, 3.199672
75800.0, 3.2018218
76000.0, 3.203962
76200.0, 3.2060945
76400.0, 3.208219
76600.0, 3.2103348
76800.0, 3.2124424
77000.0, 3.2145417
77200.0, 3.216633
77400.0, 3.218716
77600.0, 3.220791
77800.0, 3.2228575
78000.0, 3.2249172
78200.0, 3.226968
78400.0, 3.2290108
78600.0, 3.2310457
78800.0, 3.2330725
79000.0, 3.2350924
79200.0, 3.2371035
79400.0, 3.2391078
79600.0, 3.2411032
79800.0, 3.2430918
80000.0, 3.2450721
80200.0, 3.2470453
80400.0, 3.2490113
80600.0, 3.2509685
80800.0, 3.2529192
81000.0, 3.2548616
81200.0, 3.256797
81400.0, 3.2587247
81600.0, 3.2606454
81800.0, 3.262558
82000.0, 3.2644641
82200.0, 3.2663624
82400.0, 3.2682536
82600.0, 3.270137
82800.0, 3.272014
83000.0, 3.2738833
83200.0, 3.2757454
83400.0, 3.2776012
83600.0, 3.2794492
83800.0, 3.2812903
84000.0, 3.2831237
84200.0, 3.284951
84400.0, 3.286771
84600.0, 3.2885845
84800.0, 3.2903905
85000.0, 3.29219
85200.0, 3.2939825
85400.0, 3.2957678
85600.0, 3.2975469
85800.0, 3.299319
86000.0, 3.3010843
86200.0, 3.3028429
86400.0, 3.3045948
86600.0, 3.3063402
86800.0, 3.308079
87000.0, 3.3098106
87200.0, 3.3115363
87400.0, 3.3132555
87600.0, 3.3149674
87800.0, 3.3166735
88000.0, 3.3183732
88200.0, 3.3200665
88400.0, 3.3217528
88600.0, 3.3234334
88800.0, 3.325107
89000.0, 3.326775
89200.0, 3.3284364
89400.0, 3.3300908
89600.0, 3.33174
89800.0, 3.3333821
90000.0, 3.3350189
90200.0, 3.3366494
90400.0, 3.3382728
90600.0, 3.3398914
90800.0, 3.3415027
91000.0, 3.3431082
91200.0, 3.3447087
91400.0, 3.346302
91600.0, 3.34789
91800.0, 3.3494713
92000.0, 3.3510468
92200.0, 3.3526165
92400.0, 3.354181
92600.0, 3.3557389
92800.0, 3.357291
93000.0, 3.3588371
93200.0, 3.360378
93400.0, 3.361913
93600.0, 3.3634415
93800.0, 3.364965
94000.0, 3.3664827
94200.0, 3.3679945
94400.0, 3.3695006
94600.0, 3.371001
94800.0, 3.3724961
95000.0, 3.373985
95200.0, 3.3754692
95400.0, 3.3769474
95600.0, 3.3784196
95800.0, 3.3798869
96000.0, 3.3813484
96200.0, 3.3828049
96400.0, 3.3842554
96600.0, 3.3857005
96800.0, 3.3871405
97000.0, 3.3885753
97200.0, 3.3900042
97400.0, 3.3914275
97600.0, 3.3928466
97800.0, 3.3942597
98000.0, 3.3956676
98200.0, 3.3970702
98400.0, 3.3984673
98600.0, 3.3998597
98800.0, 3.4012468
99000.0, 3.4026282
99200.0, 3.4040048
99400.0, 3.405376
99600.0, 3.4067426
99800.0, 3.4081037
100000.0, 3.40946
