Energy (in eV), backscattering yield of material ka2k-NASCAP at isotropic incidence
   X,       Y
0.0, 0.63867396
10.0, 0.35205287
20.0, 0.20683554
30.0, 0.12950352
40.0, 0.08606911
50.0, 0.06031428
60.0, 0.091088854
70.0, 0.112018935
80.0, 0.12806785
90.0, 0.14100212
100.0, 0.15177672
110.0, 0.16097671
120.0, 0.168984
130.0, 0.17605938
140.0, 0.18238764
150.0, 0.18810396
160.0, 0.19331004
170.0, 0.19808428
180.0, 0.20248829
190.0, 0.20657144
200.0, 0.21037392
210.0, 0.21392877
220.0, 0.21726365
230.0, 0.22040169
240.0, 0.2233628
250.0, 0.22616386
260.0, 0.22881952
270.0, 0.23134252
280.0, 0.23374408
290.0, 0.23603396
300.0, 0.23822086
310.0, 0.24031247
320.0, 0.24231574
330.0, 0.24423677
340.0, 0.2460812
350.0, 0.247854
360.0, 0.24955973
370.0, 0.2512025
380.0, 0.2527861
390.0, 0.25431398
400.0, 0.25578928
410.0, 0.25721493
420.0, 0.25859353
430.0, 0.2599276
440.0, 0.26121935
450.0, 0.26247102
460.0, 0.2636844
470.0, 0.26486138
480.0, 0.2660037
490.0, 0.2671129
500.0, 0.26819044
510.0, 0.26923776
520.0, 0.27025607
530.0, 0.27124664
540.0, 0.2722106
550.0, 0.27314898
560.0, 0.2740629
570.0, 0.2749532
580.0, 0.27582085
590.0, 0.27666664
600.0, 0.27749145
610.0, 0.27829593
620.0, 0.27908093
630.0, 0.27984706
640.0, 0.280595
650.0, 0.2813253
660.0, 0.28203866
670.0, 0.28273556
680.0, 0.28341654
690.0, 0.28408214
700.0, 0.28473282
710.0, 0.285369
720.0, 0.28599122
730.0, 0.2865998
740.0, 0.28719527
750.0, 0.28777787
760.0, 0.28834808
770.0, 0.28890622
780.0, 0.2894526
790.0, 0.28998762
800.0, 0.29051152
810.0, 0.29102466
820.0, 0.29152727
830.0, 0.29201964
840.0, 0.2925021
850.0, 0.29297483
860.0, 0.29343817
870.0, 0.29389223
880.0, 0.29433736
890.0, 0.29477373
900.0, 0.29520157
910.0, 0.29562104
920.0, 0.29603243
930.0, 0.29643583
940.0, 0.2968315
950.0, 0.2972196
960.0, 0.2976003
970.0, 0.2979738
980.0, 0.2983402
990.0, 0.29869968
1000.0, 0.29905245
1010.0, 0.29885784
1020.0, 0.29866353
1030.0, 0.29846954
1040.0, 0.29827586
1050.0, 0.2980825
1060.0, 0.2978894
1070.0, 0.2976967
1080.0, 0.29750422
1090.0, 0.2973121
1100.0, 0.29712027
1110.0, 0.29692873
1120.0, 0.29673752
1130.0, 0.2965466
1140.0, 0.296356
1150.0, 0.2961657
1160.0, 0.2959757
1170.0, 0.29578602
1180.0, 0.29559663
1190.0, 0.29540756
1200.0, 0.29521874
1210.0, 0.2950303
1220.0, 0.2948421
1230.0, 0.29465422
1240.0, 0.29446664
1250.0, 0.29427937
1260.0, 0.2940924
1270.0, 0.2939057
1280.0, 0.29371935
1290.0, 0.29353327
1300.0, 0.2933475
1310.0, 0.293162
1320.0, 0.29297683
1330.0, 0.29279193
1340.0, 0.29260734
1350.0, 0.29242304
1360.0, 0.29223907
1370.0, 0.29205537
1380.0, 0.29187196
1390.0, 0.29168883
1400.0, 0.29150605
1410.0, 0.2913235
1420.0, 0.29114127
1430.0, 0.29095933
1440.0, 0.29077768
1450.0, 0.29059637
1460.0, 0.2904153
1470.0, 0.2902345
1480.0, 0.29005402
1490.0, 0.28987384
1500.0, 0.28969395
1510.0, 0.28951433
1520.0, 0.289335
1530.0, 0.289156
1540.0, 0.28897724
1550.0, 0.2887988
1560.0, 0.28862062
1570.0, 0.28844276
1580.0, 0.28826517
1590.0, 0.28808784
1600.0, 0.28791085
1610.0, 0.2877341
1620.0, 0.28755763
1630.0, 0.28738147
1640.0, 0.2872056
1650.0, 0.28703
1660.0, 0.2868547
1670.0, 0.28667966
1680.0, 0.28650492
1690.0, 0.28633043
1700.0, 0.28615627
1710.0, 0.28598234
1720.0, 0.28580874
1730.0, 0.28563538
1740.0, 0.28546232
1750.0, 0.28528956
1760.0, 0.28511703
1770.0, 0.2849448
1780.0, 0.28477287
1790.0, 0.2846012
1800.0, 0.28442982
1810.0, 0.28425872
1820.0, 0.28408787
1830.0, 0.2839173
1840.0, 0.28374705
1850.0, 0.28357702
1860.0, 0.2834073
1870.0, 0.28323781
1880.0, 0.28306866
1890.0, 0.28289974
1900.0, 0.2827311
1910.0, 0.28256273
1920.0, 0.28239462
1930.0, 0.28222683
1940.0, 0.28205928
1950.0, 0.281892
1960.0, 0.28172502
1970.0, 0.28155828
1980.0, 0.28139183
1990.0, 0.28122565
2000.0, 0.2810597
2010.0, 0.28089404
2020.0, 0.28072867
2030.0, 0.28056353
2040.0, 0.28039873
2050.0, 0.28023413
2060.0, 0.28006983
2070.0, 0.2799058
2080.0, 0.279742
2090.0, 0.2795785
2100.0, 0.27941525
2110.0, 0.27925226
2120.0, 0.27908954
2130.0, 0.27892712
2140.0, 0.2787649
2150.0, 0.278603
2160.0, 0.27844134
2170.0, 0.27827996
2180.0, 0.27811882
2190.0, 0.27795795
2200.0, 0.27779734
2210.0, 0.27763698
2220.0, 0.2774769
2230.0, 0.27731708
2240.0, 0.27715752
2250.0, 0.27699822
2260.0, 0.27683917
2270.0, 0.27668038
2280.0, 0.27652186
2290.0, 0.2763636
2300.0, 0.2762056
2310.0, 0.27604783
2320.0, 0.27589035
2330.0, 0.2757331
2340.0, 0.27557614
2350.0, 0.2754194
2360.0, 0.27526295
2370.0, 0.27510676
2380.0, 0.27495077
2390.0, 0.2747951
2400.0, 0.27463964
2410.0, 0.27448443
2420.0, 0.2743295
2430.0, 0.2741748
2440.0, 0.27402037
2450.0, 0.2738662
2460.0, 0.27371228
2470.0, 0.2735586
2480.0, 0.27340516
2490.0, 0.273252
2500.0, 0.2730991
2510.0, 0.27294642
2520.0, 0.27279398
2530.0, 0.2726418
2540.0, 0.2724899
2550.0, 0.2723382
2560.0, 0.2721868
2570.0, 0.27203563
2580.0, 0.2718847
2590.0, 0.27173403
2600.0, 0.2715836
2610.0, 0.27143338
2620.0, 0.27128345
2630.0, 0.27113375
2640.0, 0.2709843
2650.0, 0.2708351
2660.0, 0.27068612
2670.0, 0.2705374
2680.0, 0.27038896
2690.0, 0.27024072
2700.0, 0.27009273
2710.0, 0.26994503
2720.0, 0.2697975
2730.0, 0.26965028
2740.0, 0.26950324
2750.0, 0.26935646
2760.0, 0.26920992
2770.0, 0.26906365
2780.0, 0.26891762
2790.0, 0.2687718
2800.0, 0.26862624
2810.0, 0.2684809
2820.0, 0.2683358
2830.0, 0.26819095
2840.0, 0.26804635
2850.0, 0.267902
2860.0, 0.26775786
2870.0, 0.26761395
2880.0, 0.2674703
2890.0, 0.26732686
2900.0, 0.2671837
2910.0, 0.26704076
2920.0, 0.26689804
2930.0, 0.26675552
2940.0, 0.2666133
2950.0, 0.2664713
2960.0, 0.26632953
2970.0, 0.26618797
2980.0, 0.26604667
2990.0, 0.2659056
3000.0, 0.26576474
3010.0, 0.26562414
3020.0, 0.26548377
3030.0, 0.2653436
3040.0, 0.2652037
3050.0, 0.26506403
3060.0, 0.2649246
3070.0, 0.26478538
3080.0, 0.26464638
3090.0, 0.26450762
3100.0, 0.26436907
3110.0, 0.2642308
3120.0, 0.2640927
3130.0, 0.26395488
3140.0, 0.26381728
3150.0, 0.2636799
3160.0, 0.2635427
3170.0, 0.2634058
3180.0, 0.2632691
3190.0, 0.2631326
3200.0, 0.26299638
3210.0, 0.26286033
3220.0, 0.26272452
3230.0, 0.26258898
3240.0, 0.2624536
3250.0, 0.2623185
3260.0, 0.26218358
3270.0, 0.2620489
3280.0, 0.26191443
3290.0, 0.26178023
3300.0, 0.2616462
3310.0, 0.26151243
3320.0, 0.26137885
3330.0, 0.26124552
3340.0, 0.26111242
3350.0, 0.2609795
3360.0, 0.26084682
3370.0, 0.26071438
3380.0, 0.26058212
3390.0, 0.26045015
3400.0, 0.26031834
3410.0, 0.26018676
3420.0, 0.2600554
3430.0, 0.25992426
3440.0, 0.25979334
3450.0, 0.25966263
3460.0, 0.25953215
3470.0, 0.2594019
3480.0, 0.25927183
3490.0, 0.259142
3500.0, 0.2590124
3510.0, 0.25888297
3520.0, 0.2587538
3530.0, 0.25862482
3540.0, 0.25849608
3550.0, 0.25836754
3560.0, 0.2582392
3570.0, 0.2581111
3580.0, 0.2579832
3590.0, 0.25785553
3600.0, 0.25772807
3610.0, 0.25760078
3620.0, 0.25747377
3630.0, 0.25734693
3640.0, 0.2572203
3650.0, 0.25709388
3660.0, 0.2569677
3670.0, 0.25684172
3680.0, 0.25671592
3690.0, 0.25659037
3700.0, 0.256465
3710.0, 0.25633985
3720.0, 0.25621492
3730.0, 0.2560902
3740.0, 0.25596568
3750.0, 0.25584137
3760.0, 0.25571725
3770.0, 0.2555934
3780.0, 0.25546968
3790.0, 0.2553462
3800.0, 0.25522292
3810.0, 0.25509986
3820.0, 0.25497702
3830.0, 0.25485435
3840.0, 0.2547319
3850.0, 0.25460967
3860.0, 0.2544876
3870.0, 0.2543658
3880.0, 0.25424418
3890.0, 0.25412273
3900.0, 0.25400153
3910.0, 0.2538805
3920.0, 0.2537597
3930.0, 0.25363907
3940.0, 0.25351867
3950.0, 0.25339848
3960.0, 0.2532785
3970.0, 0.2531587
3980.0, 0.25303906
3990.0, 0.25291967
4000.0, 0.25280046
4010.0, 0.2526815
4020.0, 0.2525627
4030.0, 0.2524441
4040.0, 0.25232568
4050.0, 0.25220752
4060.0, 0.2520895
4070.0, 0.2519717
4080.0, 0.2518541
4090.0, 0.2517367
4100.0, 0.2516195
4110.0, 0.25150248
4120.0, 0.2513857
4130.0, 0.25126907
4140.0, 0.25115266
4150.0, 0.2510364
4160.0, 0.25092041
4170.0, 0.25080457
4180.0, 0.25068894
4190.0, 0.2505735
4200.0, 0.25045824
4210.0, 0.2503432
4220.0, 0.25022835
4230.0, 0.2501137
4240.0, 0.24999923
4250.0, 0.24988495
4260.0, 0.24977088
4270.0, 0.24965699
4280.0, 0.2495433
4290.0, 0.24942978
4300.0, 0.24931647
4310.0, 0.24920337
4320.0, 0.24909042
4330.0, 0.24897769
4340.0, 0.24886514
4350.0, 0.24875279
4360.0, 0.24864064
4370.0, 0.24852866
4380.0, 0.24841687
4390.0, 0.24830528
4400.0, 0.24819386
4410.0, 0.24808265
4420.0, 0.24797161
4430.0, 0.24786079
4440.0, 0.24775013
4450.0, 0.24763966
4460.0, 0.24752939
4470.0, 0.2474193
4480.0, 0.24730939
4490.0, 0.24719967
4500.0, 0.24709015
4510.0, 0.2469808
4520.0, 0.24687165
4530.0, 0.24676266
4540.0, 0.24665388
4550.0, 0.24654527
4560.0, 0.24643685
4570.0, 0.24632862
4580.0, 0.24622057
4590.0, 0.2461127
4600.0, 0.24600501
4610.0, 0.24589752
4620.0, 0.24579018
4630.0, 0.24568307
4640.0, 0.24557611
4650.0, 0.24546935
4660.0, 0.24536276
4670.0, 0.24525635
4680.0, 0.24515012
4690.0, 0.24504408
4700.0, 0.24493822
4710.0, 0.24483252
4720.0, 0.24472703
4730.0, 0.2446217
4740.0, 0.24451657
4750.0, 0.2444116
4760.0, 0.2443068
4770.0, 0.2442022
4780.0, 0.24409775
4790.0, 0.2439935
4800.0, 0.24388945
4810.0, 0.24378553
4820.0, 0.24368182
4830.0, 0.24357827
4840.0, 0.24347492
4850.0, 0.24337174
4860.0, 0.24326871
4870.0, 0.24316588
4880.0, 0.24306323
4890.0, 0.24296074
4900.0, 0.24285844
4910.0, 0.24275629
4920.0, 0.24265435
4930.0, 0.24255256
4940.0, 0.24245095
4950.0, 0.2423495
4960.0, 0.24224825
4970.0, 0.24214716
4980.0, 0.24204624
4990.0, 0.24194549
5000.0, 0.24184492
5010.0, 0.24174452
5020.0, 0.24164431
5030.0, 0.24154425
5040.0, 0.24144436
5050.0, 0.24134465
5060.0, 0.2412451
5070.0, 0.24114574
5080.0, 0.24104655
5090.0, 0.2409475
5100.0, 0.24084866
5110.0, 0.24074996
5120.0, 0.24065144
5130.0, 0.24055308
5140.0, 0.24045491
5150.0, 0.24035689
5160.0, 0.24025905
5170.0, 0.24016136
5180.0, 0.24006386
5190.0, 0.23996653
5200.0, 0.23986936
5210.0, 0.23977235
5220.0, 0.2396755
5230.0, 0.23957883
5240.0, 0.23948231
5250.0, 0.23938596
5260.0, 0.23928979
5270.0, 0.2391938
5280.0, 0.23909794
5290.0, 0.23900226
5300.0, 0.23890676
5310.0, 0.2388114
5320.0, 0.23871621
5330.0, 0.23862119
5340.0, 0.23852633
5350.0, 0.23843165
5360.0, 0.23833711
5370.0, 0.23824275
5380.0, 0.23814854
5390.0, 0.2380545
5400.0, 0.2379606
5410.0, 0.2378669
5420.0, 0.23777333
5430.0, 0.23767994
5440.0, 0.23758669
5450.0, 0.23749363
5460.0, 0.23740073
5470.0, 0.23730797
5480.0, 0.23721537
5490.0, 0.23712294
5500.0, 0.23703067
5510.0, 0.23693855
5520.0, 0.23684661
5530.0, 0.2367548
5540.0, 0.23666316
5550.0, 0.2365717
5560.0, 0.23648039
5570.0, 0.2363892
5580.0, 0.23629822
5590.0, 0.23620738
5600.0, 0.23611669
5610.0, 0.23602614
5620.0, 0.23593578
5630.0, 0.23584555
5640.0, 0.2357555
5650.0, 0.2356656
5660.0, 0.23557584
5670.0, 0.23548625
5680.0, 0.23539682
5690.0, 0.23530753
5700.0, 0.2352184
5710.0, 0.23512942
5720.0, 0.2350406
5730.0, 0.23495196
5740.0, 0.23486343
5750.0, 0.23477507
5760.0, 0.23468687
5770.0, 0.23459883
5780.0, 0.23451093
5790.0, 0.23442318
5800.0, 0.23433559
5810.0, 0.23424815
5820.0, 0.23416084
5830.0, 0.23407371
5840.0, 0.23398675
5850.0, 0.23389989
5860.0, 0.23381321
5870.0, 0.2337267
5880.0, 0.2336403
5890.0, 0.23355407
5900.0, 0.23346798
5910.0, 0.23338206
5920.0, 0.23329628
5930.0, 0.23321064
5940.0, 0.23312517
5950.0, 0.23303983
5960.0, 0.23295465
5970.0, 0.2328696
5980.0, 0.2327847
5990.0, 0.23269998
6000.0, 0.23261538
6010.0, 0.23253094
6020.0, 0.23244664
6030.0, 0.23236248
6040.0, 0.23227848
6050.0, 0.23219462
6060.0, 0.23211092
6070.0, 0.23202735
6080.0, 0.23194394
6090.0, 0.23186067
6100.0, 0.23177752
6110.0, 0.23169455
6120.0, 0.23161171
6130.0, 0.23152901
6140.0, 0.23144646
6150.0, 0.23136406
6160.0, 0.2312818
6170.0, 0.2311997
6180.0, 0.2311177
6190.0, 0.23103587
6200.0, 0.23095419
6210.0, 0.23087265
6220.0, 0.23079124
6230.0, 0.23071
6240.0, 0.23062888
6250.0, 0.2305479
6260.0, 0.23046707
6270.0, 0.23038638
6280.0, 0.23030584
6290.0, 0.23022541
6300.0, 0.23014516
6310.0, 0.23006503
6320.0, 0.22998504
6330.0, 0.2299052
6340.0, 0.2298255
6350.0, 0.22974592
6360.0, 0.22966652
6370.0, 0.22958723
6380.0, 0.22950809
6390.0, 0.22942905
6400.0, 0.2293502
6410.0, 0.22927146
6420.0, 0.22919287
6430.0, 0.22911441
6440.0, 0.2290361
6450.0, 0.22895792
6460.0, 0.22887987
6470.0, 0.22880197
6480.0, 0.2287242
6490.0, 0.22864658
6500.0, 0.22856908
6510.0, 0.22849171
6520.0, 0.22841449
6530.0, 0.2283374
6540.0, 0.22826046
6550.0, 0.22818364
6560.0, 0.22810696
6570.0, 0.22803043
6580.0, 0.227954
6590.0, 0.22787775
6600.0, 0.2278016
6610.0, 0.22772558
6620.0, 0.22764972
6630.0, 0.22757399
6640.0, 0.22749838
6650.0, 0.2274229
6660.0, 0.22734757
6670.0, 0.22727238
6680.0, 0.22719729
6690.0, 0.22712234
6700.0, 0.22704753
6710.0, 0.22697286
6720.0, 0.22689831
6730.0, 0.2268239
6740.0, 0.22674961
6750.0, 0.22667545
6760.0, 0.22660145
6770.0, 0.22652756
6780.0, 0.2264538
6790.0, 0.22638017
6800.0, 0.22630666
6810.0, 0.22623329
6820.0, 0.22616006
6830.0, 0.22608696
6840.0, 0.22601397
6850.0, 0.22594112
6860.0, 0.22586839
6870.0, 0.22579582
6880.0, 0.22572334
6890.0, 0.22565103
6900.0, 0.22557881
6910.0, 0.22550672
6920.0, 0.22543478
6930.0, 0.22536296
6940.0, 0.22529125
6950.0, 0.22521967
6960.0, 0.22514823
6970.0, 0.22507691
6980.0, 0.22500573
6990.0, 0.22493465
7000.0, 0.22486372
7010.0, 0.22479291
7020.0, 0.22472222
7030.0, 0.22465166
7040.0, 0.22458123
7050.0, 0.22451091
7060.0, 0.22444072
7070.0, 0.22437066
7080.0, 0.22430073
7090.0, 0.22423092
7100.0, 0.22416124
7110.0, 0.22409166
7120.0, 0.22402222
7130.0, 0.22395289
7140.0, 0.2238837
7150.0, 0.22381464
7160.0, 0.22374569
7170.0, 0.22367685
7180.0, 0.22360815
7190.0, 0.22353956
7200.0, 0.22347112
7210.0, 0.22340277
7220.0, 0.22333457
7230.0, 0.22326645
7240.0, 0.22319849
7250.0, 0.22313064
7260.0, 0.2230629
7270.0, 0.22299528
7280.0, 0.2229278
7290.0, 0.22286043
7300.0, 0.22279318
7310.0, 0.22272605
7320.0, 0.22265904
7330.0, 0.22259213
7340.0, 0.22252536
7350.0, 0.2224587
7360.0, 0.22239217
7370.0, 0.22232576
7380.0, 0.22225948
7390.0, 0.2221933
7400.0, 0.22212724
7410.0, 0.22206129
7420.0, 0.22199546
7430.0, 0.22192974
7440.0, 0.22186416
7450.0, 0.22179869
7460.0, 0.22173333
7470.0, 0.2216681
7480.0, 0.22160298
7490.0, 0.22153796
7500.0, 0.22147308
7510.0, 0.2214083
7520.0, 0.22134367
7530.0, 0.2212791
7540.0, 0.22121468
7550.0, 0.22115037
7560.0, 0.22108616
7570.0, 0.2210221
7580.0, 0.22095811
7590.0, 0.22089426
7600.0, 0.22083053
7610.0, 0.22076692
7620.0, 0.2207034
7630.0, 0.22063999
7640.0, 0.22057672
7650.0, 0.22051355
7660.0, 0.22045049
7670.0, 0.22038755
7680.0, 0.22032471
7690.0, 0.220262
7700.0, 0.2201994
7710.0, 0.2201369
7720.0, 0.22007452
7730.0, 0.22001225
7740.0, 0.21995011
7750.0, 0.21988805
7760.0, 0.21982612
7770.0, 0.21976429
7780.0, 0.21970259
7790.0, 0.21964099
7800.0, 0.2195795
7810.0, 0.21951811
7820.0, 0.21945684
7830.0, 0.21939568
7840.0, 0.21933463
7850.0, 0.2192737
7860.0, 0.21921287
7870.0, 0.21915215
7880.0, 0.21909153
7890.0, 0.21903104
7900.0, 0.21897063
7910.0, 0.21891035
7920.0, 0.21885017
7930.0, 0.21879011
7940.0, 0.21873014
7950.0, 0.2186703
7960.0, 0.21861055
7970.0, 0.2185509
7980.0, 0.21849139
7990.0, 0.21843195
8000.0, 0.21837264
8010.0, 0.21831343
8020.0, 0.21825434
8030.0, 0.21819535
8040.0, 0.21813644
8050.0, 0.21807767
8060.0, 0.218019
8070.0, 0.21796042
8080.0, 0.21790196
8090.0, 0.21784359
8100.0, 0.21778533
8110.0, 0.21772718
8120.0, 0.21766914
8130.0, 0.21761121
8140.0, 0.21755336
8150.0, 0.21749564
8160.0, 0.21743801
8170.0, 0.21738048
8180.0, 0.21732306
8190.0, 0.21726575
8200.0, 0.21720855
8210.0, 0.21715143
8220.0, 0.21709444
8230.0, 0.21703754
8240.0, 0.21698073
8250.0, 0.21692404
8260.0, 0.21686745
8270.0, 0.21681096
8280.0, 0.21675457
8290.0, 0.21669827
8300.0, 0.2166421
8310.0, 0.21658601
8320.0, 0.21653004
8330.0, 0.21647415
8340.0, 0.21641837
8350.0, 0.21636268
8360.0, 0.21630712
8370.0, 0.21625164
8380.0, 0.21619627
8390.0, 0.216141
8400.0, 0.21608582
8410.0, 0.21603073
8420.0, 0.21597576
8430.0, 0.21592088
8440.0, 0.21586612
8450.0, 0.21581145
8460.0, 0.21575686
8470.0, 0.21570238
8480.0, 0.21564801
8490.0, 0.21559373
8500.0, 0.21553953
8510.0, 0.21548545
8520.0, 0.21543147
8530.0, 0.21537758
8540.0, 0.21532379
8550.0, 0.2152701
8560.0, 0.2152165
8570.0, 0.21516299
8580.0, 0.21510959
8590.0, 0.2150563
8600.0, 0.21500309
8610.0, 0.21494998
8620.0, 0.21489698
8630.0, 0.21484405
8640.0, 0.21479122
8650.0, 0.21473852
8660.0, 0.21468587
8670.0, 0.21463336
8680.0, 0.21458091
8690.0, 0.21452858
8700.0, 0.21447632
8710.0, 0.21442416
8720.0, 0.21437213
8730.0, 0.21432017
8740.0, 0.2142683
8750.0, 0.21421652
8760.0, 0.21416484
8770.0, 0.21411325
8780.0, 0.21406177
8790.0, 0.21401036
8800.0, 0.21395907
8810.0, 0.21390787
8820.0, 0.21385673
8830.0, 0.21380572
8840.0, 0.21375479
8850.0, 0.21370395
8860.0, 0.2136532
8870.0, 0.21360256
8880.0, 0.213552
8890.0, 0.21350153
8900.0, 0.21345116
8910.0, 0.21340087
8920.0, 0.21335068
8930.0, 0.21330059
8940.0, 0.21325058
8950.0, 0.21320067
8960.0, 0.21315083
8970.0, 0.2131011
8980.0, 0.21305145
8990.0, 0.2130019
9000.0, 0.21295245
9010.0, 0.21290308
9020.0, 0.2128538
9030.0, 0.21280462
9040.0, 0.21275552
9050.0, 0.21270649
9060.0, 0.21265757
9070.0, 0.21260874
9080.0, 0.21256
9090.0, 0.21251135
9100.0, 0.21246277
9110.0, 0.2124143
9120.0, 0.21236591
9130.0, 0.21231763
9140.0, 0.2122694
9150.0, 0.2122213
9160.0, 0.21217325
9170.0, 0.2121253
9180.0, 0.21207745
9190.0, 0.21202968
9200.0, 0.21198201
9210.0, 0.2119344
9220.0, 0.2118869
9230.0, 0.21183948
9240.0, 0.21179214
9250.0, 0.2117449
9260.0, 0.21169773
9270.0, 0.21165065
9280.0, 0.21160369
9290.0, 0.21155678
9300.0, 0.21150996
9310.0, 0.21146324
9320.0, 0.2114166
9330.0, 0.21137002
9340.0, 0.21132357
9350.0, 0.21127719
9360.0, 0.21123089
9370.0, 0.21118465
9380.0, 0.21113855
9390.0, 0.21109247
9400.0, 0.21104653
9410.0, 0.21100064
9420.0, 0.21095484
9430.0, 0.21090914
9440.0, 0.21086352
9450.0, 0.21081798
9460.0, 0.21077251
9470.0, 0.21072716
9480.0, 0.21068186
9490.0, 0.21063665
9500.0, 0.21059154
9510.0, 0.2105465
9520.0, 0.21050154
9530.0, 0.21045665
9540.0, 0.21041186
9550.0, 0.21036716
9560.0, 0.21032253
9570.0, 0.21027799
9580.0, 0.21023351
9590.0, 0.21018913
9600.0, 0.21014485
9610.0, 0.2101006
9620.0, 0.2100565
9630.0, 0.21001242
9640.0, 0.20996846
9650.0, 0.20992456
9660.0, 0.20988075
9670.0, 0.20983702
9680.0, 0.20979337
9690.0, 0.2097498
9700.0, 0.2097063
9710.0, 0.2096629
9720.0, 0.20961958
9730.0, 0.20957631
9740.0, 0.20953315
9750.0, 0.20949006
9760.0, 0.20944704
9770.0, 0.20940413
9780.0, 0.20936127
9790.0, 0.20931849
9800.0, 0.2092758
9810.0, 0.20923318
9820.0, 0.20919067
9830.0, 0.2091482
9840.0, 0.20910582
9850.0, 0.20906353
9860.0, 0.2090213
9870.0, 0.20897916
9880.0, 0.20893708
9890.0, 0.20889509
9900.0, 0.20885319
9910.0, 0.20881134
9920.0, 0.20876959
9930.0, 0.20872791
9940.0, 0.20868632
9950.0, 0.20864479
9960.0, 0.20860335
9970.0, 0.20856197
9980.0, 0.20852067
9990.0, 0.20847946
10000.0, 0.20843832
10010.0, 0.20839725
10020.0, 0.20835628
10030.0, 0.20831536
10040.0, 0.20827451
10050.0, 0.20823376
10060.0, 0.20819308
10070.0, 0.20815246
10080.0, 0.20811191
10090.0, 0.20807147
10100.0, 0.20803107
10110.0, 0.20799077
10120.0, 0.20795053
10130.0, 0.20791037
10140.0, 0.20787029
10150.0, 0.20783027
10160.0, 0.20779033
10170.0, 0.20775047
10180.0, 0.20771068
10190.0, 0.20767097
10200.0, 0.20763132
10210.0, 0.20759174
10220.0, 0.20755225
10230.0, 0.20751283
10240.0, 0.20747349
10250.0, 0.2074342
10260.0, 0.20739502
10270.0, 0.20735589
10280.0, 0.20731682
10290.0, 0.20727783
10300.0, 0.20723893
10310.0, 0.20720008
10320.0, 0.20716132
10330.0, 0.20712262
10340.0, 0.207084
10350.0, 0.20704545
10360.0, 0.20700698
10370.0, 0.20696856
10380.0, 0.20693022
10390.0, 0.20689195
10400.0, 0.20685375
10410.0, 0.20681563
10420.0, 0.20677759
10430.0, 0.2067396
10440.0, 0.2067017
10450.0, 0.20666385
10460.0, 0.20662609
10470.0, 0.20658837
10480.0, 0.20655075
10490.0, 0.20651318
10500.0, 0.2064757
10510.0, 0.20643829
10520.0, 0.20640095
10530.0, 0.20636366
10540.0, 0.20632645
10550.0, 0.2062893
10560.0, 0.20625223
10570.0, 0.20621523
10580.0, 0.20617831
10590.0, 0.20614143
10600.0, 0.20610464
10610.0, 0.2060679
10620.0, 0.20603125
