Energy (in eV), backscattering yield of material osr2k-NASCAP at incidence 40.0 degree
   X,       Y
0.0, 0.58802754
10.0, 0.27334353
20.0, 0.12706323
30.0, 0.05906511
40.0, 0.02745631
50.0, 0.012763015
60.0, 0.037557676
70.0, 0.056674045
80.0, 0.07235838
90.0, 0.085576035
100.0, 0.096947774
110.0, 0.1068994
120.0, 0.115731075
130.0, 0.123659626
140.0, 0.13084552
150.0, 0.13741027
160.0, 0.14344797
170.0, 0.14903289
180.0, 0.15422462
190.0, 0.15907179
200.0, 0.1636145
210.0, 0.16788627
220.0, 0.17191541
230.0, 0.175726
240.0, 0.17933874
250.0, 0.18277153
260.0, 0.18603995
270.0, 0.1891577
280.0, 0.19213676
290.0, 0.19498782
300.0, 0.19772036
310.0, 0.20034285
320.0, 0.20286292
330.0, 0.20528738
340.0, 0.20762245
350.0, 0.2098737
360.0, 0.2120463
370.0, 0.21414486
380.0, 0.21617362
390.0, 0.21813652
400.0, 0.22003715
410.0, 0.22187877
420.0, 0.2236645
430.0, 0.22539714
440.0, 0.22707926
450.0, 0.22871335
460.0, 0.23030162
470.0, 0.23184621
480.0, 0.23334911
490.0, 0.23481213
500.0, 0.23623697
510.0, 0.23762527
520.0, 0.23897852
530.0, 0.2402982
540.0, 0.24158557
550.0, 0.24284194
560.0, 0.2440685
570.0, 0.24526636
580.0, 0.24643661
590.0, 0.2475802
600.0, 0.24869815
610.0, 0.24979132
620.0, 0.25086054
630.0, 0.25190672
640.0, 0.25293055
650.0, 0.2539328
660.0, 0.25491416
670.0, 0.2558753
680.0, 0.2568169
690.0, 0.25773945
700.0, 0.25864366
710.0, 0.25953004
720.0, 0.2603991
730.0, 0.26125136
740.0, 0.26208732
750.0, 0.26290742
760.0, 0.26371217
770.0, 0.26450187
780.0, 0.2652771
790.0, 0.26603812
800.0, 0.26678538
810.0, 0.26751924
820.0, 0.26823997
830.0, 0.26894805
840.0, 0.26964366
850.0, 0.27032727
860.0, 0.270999
870.0, 0.2716593
880.0, 0.27230838
890.0, 0.27294648
900.0, 0.27357394
910.0, 0.27419096
920.0, 0.27479777
930.0, 0.27539468
940.0, 0.2759818
950.0, 0.2765595
960.0, 0.27712786
970.0, 0.2776872
980.0, 0.2782376
990.0, 0.27877936
1000.0, 0.2793126
1010.0, 0.2791276
1020.0, 0.2789429
1030.0, 0.27875856
1040.0, 0.27857453
1050.0, 0.27839085
1060.0, 0.27820748
1070.0, 0.27802446
1080.0, 0.27784178
1090.0, 0.2776594
1100.0, 0.27747735
1110.0, 0.27729565
1120.0, 0.27711424
1130.0, 0.2769332
1140.0, 0.27675244
1150.0, 0.27657205
1160.0, 0.27639195
1170.0, 0.2762122
1180.0, 0.27603275
1190.0, 0.27585363
1200.0, 0.27567485
1210.0, 0.2754964
1220.0, 0.2753182
1230.0, 0.2751404
1240.0, 0.2749629
1250.0, 0.2747857
1260.0, 0.27460882
1270.0, 0.27443227
1280.0, 0.27425605
1290.0, 0.27408013
1300.0, 0.27390453
1310.0, 0.27372923
1320.0, 0.27355427
1330.0, 0.27337962
1340.0, 0.27320528
1350.0, 0.27303126
1360.0, 0.27285758
1370.0, 0.2726842
1380.0, 0.2725111
1390.0, 0.27233833
1400.0, 0.27216586
1410.0, 0.27199373
1420.0, 0.2718219
1430.0, 0.27165037
1440.0, 0.27147916
1450.0, 0.27130824
1460.0, 0.27113765
1470.0, 0.27096736
1480.0, 0.27079737
1490.0, 0.2706277
1500.0, 0.27045834
1510.0, 0.27028927
1520.0, 0.2701205
1530.0, 0.26995206
1540.0, 0.2697839
1550.0, 0.26961607
1560.0, 0.26944855
1570.0, 0.2692813
1580.0, 0.26911438
1590.0, 0.26894775
1600.0, 0.2687814
1610.0, 0.2686154
1620.0, 0.26844966
1630.0, 0.26828423
1640.0, 0.2681191
1650.0, 0.26795426
1660.0, 0.26778975
1670.0, 0.2676255
1680.0, 0.26746157
1690.0, 0.26729792
1700.0, 0.2671346
1710.0, 0.26697156
1720.0, 0.26680878
1730.0, 0.26664636
1740.0, 0.26648417
1750.0, 0.2663223
1760.0, 0.26616073
1770.0, 0.26599947
1780.0, 0.26583847
1790.0, 0.26567778
1800.0, 0.26551735
1810.0, 0.26535726
1820.0, 0.26519743
1830.0, 0.2650379
1840.0, 0.26487866
1850.0, 0.2647197
1860.0, 0.26456103
1870.0, 0.26440266
1880.0, 0.26424456
1890.0, 0.26408675
1900.0, 0.26392925
1910.0, 0.263772
1920.0, 0.26361504
1930.0, 0.2634584
1940.0, 0.26330203
1950.0, 0.26314592
1960.0, 0.26299012
1970.0, 0.26283458
1980.0, 0.26267934
1990.0, 0.2625244
2000.0, 0.2623697
2010.0, 0.26221532
2020.0, 0.2620612
2030.0, 0.26190737
2040.0, 0.26175383
2050.0, 0.26160052
2060.0, 0.26144755
2070.0, 0.2612948
2080.0, 0.26114237
2090.0, 0.2609902
2100.0, 0.26083833
2110.0, 0.2606867
2120.0, 0.2605354
2130.0, 0.26038432
2140.0, 0.26023352
2150.0, 0.26008302
2160.0, 0.2599328
2170.0, 0.25978282
2180.0, 0.25963315
2190.0, 0.25948372
2200.0, 0.2593346
2210.0, 0.25918573
2220.0, 0.2590371
2230.0, 0.25888878
2240.0, 0.25874072
2250.0, 0.25859293
2260.0, 0.2584454
2270.0, 0.2582982
2280.0, 0.25815117
2290.0, 0.2580045
2300.0, 0.25785804
2310.0, 0.25771186
2320.0, 0.25756595
2330.0, 0.2574203
2340.0, 0.25727493
2350.0, 0.25712982
2360.0, 0.25698498
2370.0, 0.25684038
2380.0, 0.25669605
2390.0, 0.256552
2400.0, 0.2564082
2410.0, 0.2562647
2420.0, 0.25612143
2430.0, 0.2559784
2440.0, 0.25583568
2450.0, 0.2556932
2460.0, 0.25555098
2470.0, 0.255409
2480.0, 0.2552673
2490.0, 0.25512585
2500.0, 0.25498468
2510.0, 0.25484374
2520.0, 0.25470307
2530.0, 0.25456265
2540.0, 0.2544225
2550.0, 0.2542826
2560.0, 0.25414297
2570.0, 0.25400358
2580.0, 0.25386444
2590.0, 0.25372556
2600.0, 0.25358695
2610.0, 0.25344858
2620.0, 0.25331044
2630.0, 0.2531726
2640.0, 0.25303498
2650.0, 0.25289765
2660.0, 0.25276053
2670.0, 0.25262368
2680.0, 0.25248706
2690.0, 0.25235072
2700.0, 0.2522146
2710.0, 0.25207874
2720.0, 0.25194314
2730.0, 0.2518078
2740.0, 0.2516727
2750.0, 0.25153783
2760.0, 0.2514032
2770.0, 0.25126886
2780.0, 0.25113475
2790.0, 0.25100085
2800.0, 0.25086725
2810.0, 0.25073385
2820.0, 0.25060073
2830.0, 0.25046784
2840.0, 0.2503352
2850.0, 0.25020278
2860.0, 0.25007063
2870.0, 0.2499387
2880.0, 0.24980703
2890.0, 0.24967559
2900.0, 0.2495444
2910.0, 0.24941345
2920.0, 0.24928273
2930.0, 0.24915227
2940.0, 0.24902204
2950.0, 0.24889204
2960.0, 0.24876231
2970.0, 0.24863279
2980.0, 0.2485035
2990.0, 0.24837448
3000.0, 0.24824567
3010.0, 0.24811712
3020.0, 0.24798879
3030.0, 0.24786068
3040.0, 0.24773285
3050.0, 0.24760522
3060.0, 0.24747783
3070.0, 0.24735068
3080.0, 0.24722376
3090.0, 0.24709709
3100.0, 0.24697064
3110.0, 0.24684443
3120.0, 0.24671844
3130.0, 0.24659269
3140.0, 0.24646717
3150.0, 0.24634188
3160.0, 0.24621683
3170.0, 0.246092
3180.0, 0.2459674
3190.0, 0.24584305
3200.0, 0.2457189
3210.0, 0.245595
3220.0, 0.24547131
3230.0, 0.24534786
3240.0, 0.24522464
3250.0, 0.24510165
3260.0, 0.24497887
3270.0, 0.24485633
3280.0, 0.24473402
3290.0, 0.24461192
3300.0, 0.24449006
3310.0, 0.24436842
3320.0, 0.244247
3330.0, 0.24412583
3340.0, 0.24400485
3350.0, 0.2438841
3360.0, 0.24376358
3370.0, 0.24364328
3380.0, 0.24352321
3390.0, 0.24340335
3400.0, 0.24328372
3410.0, 0.2431643
3420.0, 0.24304512
3430.0, 0.24292615
3440.0, 0.2428074
3450.0, 0.24268886
3460.0, 0.24257053
3470.0, 0.24245246
3480.0, 0.24233457
3490.0, 0.24221693
3500.0, 0.24209948
3510.0, 0.24198227
3520.0, 0.24186526
3530.0, 0.24174847
3540.0, 0.2416319
3550.0, 0.24151553
3560.0, 0.2413994
3570.0, 0.24128348
3580.0, 0.24116775
3590.0, 0.24105226
3600.0, 0.24093698
3610.0, 0.24082191
3620.0, 0.24070705
3630.0, 0.2405924
3640.0, 0.24047798
3650.0, 0.24036376
3660.0, 0.24024977
3670.0, 0.24013597
3680.0, 0.24002238
3690.0, 0.239909
3700.0, 0.23979583
3710.0, 0.23968288
3720.0, 0.23957013
3730.0, 0.23945759
3740.0, 0.23934527
3750.0, 0.23923315
3760.0, 0.23912123
3770.0, 0.23900953
3780.0, 0.23889804
3790.0, 0.23878676
3800.0, 0.23867567
3810.0, 0.23856479
3820.0, 0.23845412
3830.0, 0.23834367
3840.0, 0.2382334
3850.0, 0.23812334
3860.0, 0.2380135
3870.0, 0.23790385
3880.0, 0.2377944
3890.0, 0.23768516
3900.0, 0.23757613
3910.0, 0.23746729
3920.0, 0.23735866
3930.0, 0.23725024
3940.0, 0.237142
3950.0, 0.23703398
3960.0, 0.23692614
3970.0, 0.23681852
3980.0, 0.2367111
3990.0, 0.23660387
4000.0, 0.23649684
4010.0, 0.23639002
4020.0, 0.23628339
4030.0, 0.23617695
4040.0, 0.23607072
4050.0, 0.2359647
4060.0, 0.23585886
4070.0, 0.23575322
4080.0, 0.23564777
4090.0, 0.23554254
4100.0, 0.23543748
4110.0, 0.23533262
4120.0, 0.23522796
4130.0, 0.2351235
4140.0, 0.23501922
4150.0, 0.23491515
4160.0, 0.23481126
4170.0, 0.23470756
4180.0, 0.23460408
4190.0, 0.23450077
4200.0, 0.23439766
4210.0, 0.23429476
4220.0, 0.23419203
4230.0, 0.23408948
4240.0, 0.23398714
4250.0, 0.23388499
4260.0, 0.23378304
4270.0, 0.23368125
4280.0, 0.23357967
4290.0, 0.23347828
4300.0, 0.23337707
4310.0, 0.23327607
4320.0, 0.23317523
4330.0, 0.2330746
4340.0, 0.23297416
4350.0, 0.23287389
4360.0, 0.23277381
4370.0, 0.23267391
4380.0, 0.23257421
4390.0, 0.2324747
4400.0, 0.23237537
4410.0, 0.23227622
4420.0, 0.23217727
4430.0, 0.2320785
4440.0, 0.2319799
4450.0, 0.2318815
4460.0, 0.23178329
4470.0, 0.23168524
4480.0, 0.23158738
4490.0, 0.23148972
4500.0, 0.23139223
4510.0, 0.23129492
4520.0, 0.23119779
4530.0, 0.23110084
4540.0, 0.23100407
4550.0, 0.2309075
4560.0, 0.2308111
4570.0, 0.23071489
4580.0, 0.23061883
4590.0, 0.23052298
4600.0, 0.2304273
4610.0, 0.2303318
4620.0, 0.23023649
4630.0, 0.23014133
4640.0, 0.23004636
4650.0, 0.22995158
4660.0, 0.22985697
4670.0, 0.22976252
4680.0, 0.22966827
4690.0, 0.22957419
4700.0, 0.22948028
4710.0, 0.22938655
4720.0, 0.229293
4730.0, 0.22919962
4740.0, 0.22910643
4750.0, 0.2290134
4760.0, 0.22892053
4770.0, 0.22882785
4780.0, 0.22873534
4790.0, 0.22864303
4800.0, 0.22855085
4810.0, 0.22845887
4820.0, 0.22836706
4830.0, 0.22827542
4840.0, 0.22818394
4850.0, 0.22809266
4860.0, 0.22800152
4870.0, 0.22791056
4880.0, 0.22781979
4890.0, 0.22772916
4900.0, 0.22763872
4910.0, 0.22754845
4920.0, 0.22745833
4930.0, 0.2273684
4940.0, 0.22727863
4950.0, 0.22718903
4960.0, 0.22709961
4970.0, 0.22701034
4980.0, 0.22692125
4990.0, 0.22683232
5000.0, 0.22674355
5010.0, 0.22665496
5020.0, 0.22656652
5030.0, 0.22647826
5040.0, 0.22639017
5050.0, 0.22630225
5060.0, 0.22621447
5070.0, 0.2261269
5080.0, 0.22603944
5090.0, 0.22595218
5100.0, 0.22586507
5110.0, 0.22577812
5120.0, 0.22569135
5130.0, 0.22560473
5140.0, 0.22551827
5150.0, 0.225432
5160.0, 0.22534585
5170.0, 0.2252599
5180.0, 0.22517408
5190.0, 0.22508845
5200.0, 0.22500296
5210.0, 0.22491765
5220.0, 0.22483248
5230.0, 0.2247475
5240.0, 0.22466265
5250.0, 0.22457796
5260.0, 0.22449344
5270.0, 0.22440907
5280.0, 0.22432488
5290.0, 0.22424082
5300.0, 0.22415695
5310.0, 0.22407322
5320.0, 0.22398965
5330.0, 0.22390623
5340.0, 0.22382298
5350.0, 0.22373988
5360.0, 0.22365695
5370.0, 0.22357416
5380.0, 0.22349153
5390.0, 0.22340906
5400.0, 0.22332674
5410.0, 0.22324456
5420.0, 0.22316256
5430.0, 0.22308072
5440.0, 0.22299902
5450.0, 0.22291747
5460.0, 0.22283608
5470.0, 0.22275484
5480.0, 0.22267376
5490.0, 0.22259283
5500.0, 0.22251205
5510.0, 0.22243144
5520.0, 0.22235094
5530.0, 0.22227064
5540.0, 0.22219045
5550.0, 0.22211045
5560.0, 0.22203058
5570.0, 0.22195086
5580.0, 0.22187129
5590.0, 0.22179188
5600.0, 0.2217126
5610.0, 0.22163351
5620.0, 0.22155452
5630.0, 0.2214757
5640.0, 0.22139704
5650.0, 0.22131851
5660.0, 0.22124015
5670.0, 0.22116192
5680.0, 0.22108385
5690.0, 0.22100593
5700.0, 0.22092815
5710.0, 0.22085051
5720.0, 0.22077303
5730.0, 0.22069569
5740.0, 0.22061849
5750.0, 0.22054145
5760.0, 0.22046454
5770.0, 0.22038777
5780.0, 0.22031118
5790.0, 0.2202347
5800.0, 0.22015838
5810.0, 0.22008222
5820.0, 0.22000618
5830.0, 0.21993029
5840.0, 0.21985455
5850.0, 0.21977894
5860.0, 0.2197035
5870.0, 0.21962816
5880.0, 0.21955298
5890.0, 0.21947797
5900.0, 0.21940306
5910.0, 0.21932831
5920.0, 0.21925373
5930.0, 0.21917926
5940.0, 0.21910493
5950.0, 0.21903075
5960.0, 0.21895671
5970.0, 0.2188828
5980.0, 0.21880904
5990.0, 0.21873543
6000.0, 0.21866195
6010.0, 0.21858859
6020.0, 0.2185154
6030.0, 0.21844234
6040.0, 0.2183694
6050.0, 0.21829662
6060.0, 0.21822397
6070.0, 0.21815145
6080.0, 0.21807909
6090.0, 0.21800683
6100.0, 0.21793474
6110.0, 0.21786277
6120.0, 0.21779096
6130.0, 0.21771926
6140.0, 0.2176477
6150.0, 0.21757628
6160.0, 0.21750501
6170.0, 0.21743387
6180.0, 0.21736284
6190.0, 0.21729197
6200.0, 0.21722122
6210.0, 0.21715061
6220.0, 0.21708015
6230.0, 0.2170098
6240.0, 0.21693958
6250.0, 0.21686952
6260.0, 0.21679957
6270.0, 0.21672976
6280.0, 0.21666008
6290.0, 0.21659055
6300.0, 0.21652114
6310.0, 0.21645185
6320.0, 0.21638271
6330.0, 0.2163137
6340.0, 0.2162448
6350.0, 0.21617606
6360.0, 0.21610743
6370.0, 0.21603893
6380.0, 0.21597058
6390.0, 0.21590234
6400.0, 0.21583425
6410.0, 0.21576628
6420.0, 0.21569842
6430.0, 0.21563071
6440.0, 0.21556312
6450.0, 0.21549568
6460.0, 0.21542834
6470.0, 0.21536113
6480.0, 0.21529406
6490.0, 0.21522711
6500.0, 0.2151603
6510.0, 0.2150936
6520.0, 0.21502705
6530.0, 0.2149606
6540.0, 0.2148943
6550.0, 0.21482812
6560.0, 0.21476206
6570.0, 0.21469612
6580.0, 0.21463032
6590.0, 0.21456462
6600.0, 0.21449907
6610.0, 0.21443366
6620.0, 0.21436833
6630.0, 0.21430315
6640.0, 0.21423809
6650.0, 0.21417317
6660.0, 0.21410833
6670.0, 0.21404365
6680.0, 0.2139791
6690.0, 0.21391465
6700.0, 0.21385033
6710.0, 0.21378614
6720.0, 0.21372207
6730.0, 0.21365812
6740.0, 0.21359429
6750.0, 0.21353059
6760.0, 0.213467
6770.0, 0.21340354
6780.0, 0.2133402
6790.0, 0.21327695
6800.0, 0.21321386
6810.0, 0.21315089
6820.0, 0.21308802
6830.0, 0.21302529
6840.0, 0.21296266
6850.0, 0.21290016
6860.0, 0.21283779
6870.0, 0.2127755
6880.0, 0.21271338
6890.0, 0.21265134
6900.0, 0.21258943
6910.0, 0.21252765
6920.0, 0.21246597
6930.0, 0.2124044
6940.0, 0.21234298
6950.0, 0.21228166
6960.0, 0.21222045
6970.0, 0.21215937
6980.0, 0.2120984
6990.0, 0.21203755
7000.0, 0.21197681
7010.0, 0.21191621
7020.0, 0.2118557
7030.0, 0.2117953
7040.0, 0.21173504
7050.0, 0.21167488
7060.0, 0.21161483
7070.0, 0.2115549
7080.0, 0.2114951
7090.0, 0.21143539
7100.0, 0.2113758
7110.0, 0.21131633
7120.0, 0.21125698
7130.0, 0.21119775
7140.0, 0.2111386
7150.0, 0.2110796
7160.0, 0.21102068
7170.0, 0.2109619
7180.0, 0.21090321
7190.0, 0.21084464
7200.0, 0.2107862
7210.0, 0.21072784
7220.0, 0.21066962
7230.0, 0.2106115
7240.0, 0.2105535
7250.0, 0.21049559
7260.0, 0.2104378
7270.0, 0.21038012
7280.0, 0.21032257
7290.0, 0.2102651
7300.0, 0.21020776
7310.0, 0.21015052
7320.0, 0.2100934
7330.0, 0.21003638
7340.0, 0.20997949
7350.0, 0.20992269
7360.0, 0.209866
7370.0, 0.20980941
7380.0, 0.20975293
7390.0, 0.20969658
7400.0, 0.20964031
7410.0, 0.20958416
7420.0, 0.20952812
7430.0, 0.2094722
7440.0, 0.20941636
7450.0, 0.20936064
7460.0, 0.20930503
7470.0, 0.20924953
7480.0, 0.20919414
7490.0, 0.20913884
7500.0, 0.20908365
7510.0, 0.20902857
7520.0, 0.20897359
7530.0, 0.20891872
7540.0, 0.20886396
7550.0, 0.2088093
7560.0, 0.20875475
7570.0, 0.20870028
7580.0, 0.20864594
7590.0, 0.2085917
7600.0, 0.20853756
7610.0, 0.20848353
7620.0, 0.2084296
7630.0, 0.20837577
7640.0, 0.20832205
7650.0, 0.20826843
7660.0, 0.20821492
7670.0, 0.2081615
7680.0, 0.20810819
7690.0, 0.20805497
7700.0, 0.20800187
7710.0, 0.20794888
7720.0, 0.20789596
7730.0, 0.20784317
7740.0, 0.20779045
7750.0, 0.20773786
7760.0, 0.20768537
7770.0, 0.20763297
7780.0, 0.20758067
7790.0, 0.20752847
7800.0, 0.20747638
7810.0, 0.20742439
7820.0, 0.20737249
7830.0, 0.20732068
7840.0, 0.207269
7850.0, 0.20721738
7860.0, 0.2071659
7870.0, 0.2071145
7880.0, 0.20706318
7890.0, 0.207012
7900.0, 0.20696089
7910.0, 0.20690988
7920.0, 0.20685898
7930.0, 0.20680816
7940.0, 0.20675746
7950.0, 0.20670684
7960.0, 0.20665632
7970.0, 0.2066059
7980.0, 0.20655559
7990.0, 0.20650536
8000.0, 0.20645522
8010.0, 0.2064052
8020.0, 0.20635527
8030.0, 0.20630541
8040.0, 0.20625567
8050.0, 0.20620604
8060.0, 0.20615648
8070.0, 0.20610702
8080.0, 0.20605765
8090.0, 0.20600839
8100.0, 0.2059592
8110.0, 0.20591015
8120.0, 0.20586117
8130.0, 0.20581228
8140.0, 0.20576347
8150.0, 0.20571478
8160.0, 0.20566617
8170.0, 0.20561765
8180.0, 0.20556922
8190.0, 0.2055209
8200.0, 0.20547268
8210.0, 0.20542453
8220.0, 0.20537648
8230.0, 0.20532854
8240.0, 0.20528066
8250.0, 0.20523289
8260.0, 0.20518522
8270.0, 0.20513763
8280.0, 0.20509014
8290.0, 0.20504272
8300.0, 0.20499542
8310.0, 0.20494819
8320.0, 0.20490107
8330.0, 0.20485403
8340.0, 0.20480709
8350.0, 0.20476021
8360.0, 0.20471345
8370.0, 0.20466676
8380.0, 0.20462018
8390.0, 0.20457369
8400.0, 0.20452727
8410.0, 0.20448096
8420.0, 0.20443472
8430.0, 0.20438859
8440.0, 0.20434254
8450.0, 0.20429657
8460.0, 0.20425071
8470.0, 0.20420493
8480.0, 0.20415923
8490.0, 0.20411363
8500.0, 0.2040681
8510.0, 0.20402268
8520.0, 0.20397732
8530.0, 0.20393206
8540.0, 0.20388691
8550.0, 0.20384182
8560.0, 0.20379682
8570.0, 0.2037519
8580.0, 0.2037071
8590.0, 0.20366235
8600.0, 0.2036177
8610.0, 0.20357314
8620.0, 0.20352866
8630.0, 0.20348428
8640.0, 0.20343997
8650.0, 0.20339574
8660.0, 0.20335162
8670.0, 0.20330757
8680.0, 0.20326361
8690.0, 0.20321973
8700.0, 0.20317593
8710.0, 0.20313223
8720.0, 0.2030886
8730.0, 0.20304506
8740.0, 0.2030016
8750.0, 0.20295823
8760.0, 0.20291494
8770.0, 0.20287174
8780.0, 0.20282862
8790.0, 0.20278558
8800.0, 0.20274262
8810.0, 0.20269975
8820.0, 0.20265697
8830.0, 0.20261426
8840.0, 0.20257163
8850.0, 0.20252909
8860.0, 0.20248663
8870.0, 0.20244426
8880.0, 0.20240197
8890.0, 0.20235975
8900.0, 0.20231761
8910.0, 0.20227557
8920.0, 0.2022336
8930.0, 0.20219173
8940.0, 0.20214991
8950.0, 0.20210819
8960.0, 0.20206654
8970.0, 0.20202497
8980.0, 0.2019835
8990.0, 0.20194209
9000.0, 0.20190077
9010.0, 0.20185952
9020.0, 0.20181836
9030.0, 0.20177728
9040.0, 0.20173627
9050.0, 0.20169535
9060.0, 0.20165451
9070.0, 0.20161374
9080.0, 0.20157306
9090.0, 0.20153244
9100.0, 0.2014919
9110.0, 0.20145147
9120.0, 0.20141108
9130.0, 0.20137079
9140.0, 0.20133057
9150.0, 0.20129044
9160.0, 0.20125037
9170.0, 0.2012104
9180.0, 0.20117049
9190.0, 0.20113066
9200.0, 0.2010909
9210.0, 0.20105124
9220.0, 0.20101164
9230.0, 0.20097212
9240.0, 0.20093267
9250.0, 0.2008933
9260.0, 0.20085402
9270.0, 0.2008148
9280.0, 0.20077567
9290.0, 0.2007366
9300.0, 0.2006976
9310.0, 0.2006587
9320.0, 0.20061986
9330.0, 0.20058109
9340.0, 0.20054242
9350.0, 0.2005038
9360.0, 0.20046526
9370.0, 0.2004268
9380.0, 0.20038842
9390.0, 0.2003501
9400.0, 0.20031187
9410.0, 0.2002737
9420.0, 0.20023562
9430.0, 0.20019759
9440.0, 0.20015965
9450.0, 0.20012179
9460.0, 0.20008399
9470.0, 0.20004627
9480.0, 0.20000863
9490.0, 0.19997105
9500.0, 0.19993354
9510.0, 0.19989611
9520.0, 0.19985875
9530.0, 0.19982147
9540.0, 0.19978426
9550.0, 0.19974712
9560.0, 0.19971006
9570.0, 0.19967306
9580.0, 0.19963613
9590.0, 0.19959928
9600.0, 0.1995625
9610.0, 0.19952579
9620.0, 0.19948915
9630.0, 0.19945258
9640.0, 0.19941609
9650.0, 0.19937967
9660.0, 0.19934331
9670.0, 0.19930702
9680.0, 0.19927081
9690.0, 0.19923466
9700.0, 0.19919859
9710.0, 0.19916259
9720.0, 0.19912666
9730.0, 0.1990908
9740.0, 0.199055
9750.0, 0.19901928
9760.0, 0.19898362
9770.0, 0.19894804
9780.0, 0.19891253
9790.0, 0.19887708
9800.0, 0.19884169
9810.0, 0.19880639
9820.0, 0.19877115
9830.0, 0.19873598
9840.0, 0.19870088
9850.0, 0.19866584
9860.0, 0.19863087
9870.0, 0.19859597
9880.0, 0.19856115
9890.0, 0.19852638
9900.0, 0.19849169
9910.0, 0.19845706
9920.0, 0.19842249
9930.0, 0.198388
9940.0, 0.19835357
9950.0, 0.19831921
9960.0, 0.19828492
9970.0, 0.1982507
9980.0, 0.19821653
9990.0, 0.19818245
10000.0, 0.19814841
10010.0, 0.19811445
10020.0, 0.19808055
10030.0, 0.19804673
10040.0, 0.19801296
10050.0, 0.19797927
10060.0, 0.19794564
10070.0, 0.19791207
10080.0, 0.19787857
10090.0, 0.19784515
10100.0, 0.19781177
10110.0, 0.19777846
10120.0, 0.19774522
10130.0, 0.19771205
10140.0, 0.19767894
10150.0, 0.19764589
10160.0, 0.1976129
10170.0, 0.19757998
10180.0, 0.19754712
10190.0, 0.19751434
10200.0, 0.19748162
10210.0, 0.19744895
10220.0, 0.19741635
10230.0, 0.1973838
10240.0, 0.19735134
10250.0, 0.19731894
10260.0, 0.19728659
10270.0, 0.19725432
10280.0, 0.19722208
10290.0, 0.19718994
10300.0, 0.19715784
10310.0, 0.1971258
10320.0, 0.19709383
10330.0, 0.19706193
10340.0, 0.19703008
10350.0, 0.1969983
10360.0, 0.19696659
10370.0, 0.19693491
10380.0, 0.19690332
10390.0, 0.19687179
10400.0, 0.1968403
10410.0, 0.19680889
10420.0, 0.19677755
10430.0, 0.19674626
10440.0, 0.19671503
10450.0, 0.19668385
10460.0, 0.19665274
10470.0, 0.1966217
10480.0, 0.1965907
10490.0, 0.19655979
10500.0, 0.19652893
10510.0, 0.19649811
10520.0, 0.19646737
10530.0, 0.19643669
10540.0, 0.19640607
10550.0, 0.19637549
10560.0, 0.19634499
10570.0, 0.19631454
10580.0, 0.19628415
10590.0, 0.19625382
