Energy (in eV), SEEE yield of material te2k-NASCAP at incidence 90.0 degree
   X,       Y
0.0, 0.0
10.0, 0.21815382
20.0, 0.43204817
30.0, 0.6424041
40.0, 0.84911
50.0, 1.0519215
60.0, 1.2505581
70.0, 1.4447366
80.0, 1.634185
90.0, 1.818649
100.0, 1.9978945
110.0, 2.17171
120.0, 2.3399096
130.0, 2.5023289
140.0, 2.6588285
150.0, 2.809293
160.0, 2.9536314
170.0, 3.0917728
180.0, 3.223671
190.0, 3.3493004
200.0, 3.4686549
210.0, 3.581748
220.0, 3.6886134
230.0, 3.7892995
240.0, 3.8838727
250.0, 3.9724147
260.0, 4.0550203
270.0, 4.1317973
280.0, 4.2028666
290.0, 4.2683573
300.0, 4.328411
310.0, 4.3831754
320.0, 4.4328065
330.0, 4.4774666
340.0, 4.517324
350.0, 4.552549
360.0, 4.5833187
370.0, 4.60981
380.0, 4.6322017
390.0, 4.6506763
400.0, 4.665413
410.0, 4.676592
420.0, 4.6843915
430.0, 4.688989
440.0, 4.6905594
450.0, 4.6892743
460.0, 4.6853027
470.0, 4.678808
480.0, 4.669953
490.0, 4.6588917
500.0, 4.645777
510.0, 4.6307554
520.0, 4.6139693
530.0, 4.5955544
540.0, 4.575642
550.0, 4.5543594
560.0, 4.531825
570.0, 4.508155
580.0, 4.483459
590.0, 4.4578404
600.0, 4.4313984
610.0, 4.4042263
620.0, 4.3764114
630.0, 4.3480387
640.0, 4.319185
650.0, 4.2899237
660.0, 4.2603235
670.0, 4.2304497
680.0, 4.2003593
690.0, 4.1701117
700.0, 4.139754
710.0, 4.1093364
720.0, 4.078902
730.0, 4.048491
740.0, 4.018141
750.0, 3.9878852
760.0, 3.957754
770.0, 3.9277756
780.0, 3.8979762
790.0, 3.8683763
800.0, 3.8389976
810.0, 3.809859
820.0, 3.7809749
830.0, 3.75236
840.0, 3.7240267
850.0, 3.6959856
860.0, 3.6682467
870.0, 3.6408162
880.0, 3.6137006
890.0, 3.5869064
900.0, 3.5604362
910.0, 3.5342934
920.0, 3.5084805
930.0, 3.4829986
940.0, 3.4578485
950.0, 3.4330294
960.0, 3.4085407
970.0, 3.3843813
980.0, 3.3605492
990.0, 3.3370423
1000.0, 3.3138573
1010.0, 3.2909923
1020.0, 3.268443
1030.0, 3.246206
1040.0, 3.2242782
1050.0, 3.2026546
1060.0, 3.1813319
1070.0, 3.1603048
1080.0, 3.1395702
1090.0, 3.1191225
1100.0, 3.098958
1110.0, 3.0790727
1120.0, 3.05946
1130.0, 3.0401163
1140.0, 3.0210378
1150.0, 3.002219
1160.0, 2.9836547
1170.0, 2.965342
1180.0, 2.9472752
1190.0, 2.92945
1200.0, 2.9118626
1210.0, 2.894508
1220.0, 2.8773818
1230.0, 2.86048
1240.0, 2.8437986
1250.0, 2.8273335
1260.0, 2.8110805
1270.0, 2.7950354
1280.0, 2.7791948
1290.0, 2.763555
1300.0, 2.7481112
1310.0, 2.732861
1320.0, 2.7178004
1330.0, 2.7029252
1340.0, 2.6882331
1350.0, 2.6737206
1360.0, 2.659383
1370.0, 2.6452193
1380.0, 2.6312244
1390.0, 2.6173966
1400.0, 2.6037319
1410.0, 2.5902286
1420.0, 2.576882
1430.0, 2.5636907
1440.0, 2.5506518
1450.0, 2.537762
1460.0, 2.5250194
1470.0, 2.5124211
1480.0, 2.4999647
1490.0, 2.4876475
1500.0, 2.4754674
1510.0, 2.4634218
1520.0, 2.4515088
1530.0, 2.4397259
1540.0, 2.4280708
1550.0, 2.4165418
1560.0, 2.4051366
1570.0, 2.3938527
1580.0, 2.3826888
1590.0, 2.3716424
1600.0, 2.3607118
1610.0, 2.3498952
1620.0, 2.339191
1630.0, 2.3285968
1640.0, 2.3181117
1650.0, 2.3077328
1660.0, 2.2974594
1670.0, 2.2872896
1680.0, 2.2772212
1690.0, 2.2672534
1700.0, 2.2573845
1710.0, 2.2476132
1720.0, 2.2379375
1730.0, 2.2283561
1740.0, 2.2188678
1750.0, 2.2094705
1760.0, 2.2001638
1770.0, 2.190946
1780.0, 2.1818159
1790.0, 2.172772
1800.0, 2.1638129
1810.0, 2.1549375
1820.0, 2.1461444
1830.0, 2.1374333
1840.0, 2.1288018
1850.0, 2.1202495
1860.0, 2.1117754
1870.0, 2.103378
1880.0, 2.0950563
1890.0, 2.0868094
1900.0, 2.0786362
1910.0, 2.0705357
1920.0, 2.0625067
1930.0, 2.0545485
1940.0, 2.0466597
1950.0, 2.03884
1960.0, 2.0310879
1970.0, 2.0234027
1980.0, 2.0157838
1990.0, 2.00823
2000.0, 2.0007403
2010.0, 1.9933143
2020.0, 1.9859505
2030.0, 1.9786488
2040.0, 1.971408
2050.0, 1.9642272
2060.0, 1.9571062
2070.0, 1.9500436
2080.0, 1.943039
2090.0, 1.9360915
2100.0, 1.9292006
2110.0, 1.9223654
2120.0, 1.9155853
2130.0, 1.9088593
2140.0, 1.9021872
2150.0, 1.8955681
2160.0, 1.8890016
2170.0, 1.8824863
2180.0, 1.8760225
2190.0, 1.8696089
2200.0, 1.8632452
2210.0, 1.8569311
2220.0, 1.8506655
2230.0, 1.8444479
2240.0, 1.8382778
2250.0, 1.8321548
2260.0, 1.8260778
2270.0, 1.8200471
2280.0, 1.8140616
2290.0, 1.808121
2300.0, 1.8022244
2310.0, 1.7963717
2320.0, 1.7905622
2330.0, 1.7847953
2340.0, 1.7790711
2350.0, 1.7733885
2360.0, 1.767747
2370.0, 1.7621467
2380.0, 1.7565864
2390.0, 1.7510661
2400.0, 1.7455856
2410.0, 1.740144
2420.0, 1.734741
2430.0, 1.7293761
2440.0, 1.7240492
2450.0, 1.7187597
2460.0, 1.7135068
2470.0, 1.7082908
2480.0, 1.7031108
2490.0, 1.6979667
2500.0, 1.6928577
2510.0, 1.6877841
2520.0, 1.682745
2530.0, 1.67774
2540.0, 1.6727691
2550.0, 1.6678318
2560.0, 1.6629276
2570.0, 1.6580563
2580.0, 1.6532173
2590.0, 1.6484108
2600.0, 1.6436359
2610.0, 1.6388928
2620.0, 1.6341807
2630.0, 1.6294992
2640.0, 1.6248487
2650.0, 1.6202282
2660.0, 1.6156378
2670.0, 1.611077
2680.0, 1.6065454
2690.0, 1.6020432
2700.0, 1.5975695
2710.0, 1.5931243
2720.0, 1.5887073
2730.0, 1.5843182
2740.0, 1.579957
2750.0, 1.5756229
2760.0, 1.5713161
2770.0, 1.567036
2780.0, 1.5627825
2790.0, 1.5585552
2800.0, 1.5543542
2810.0, 1.550179
2820.0, 1.5460294
2830.0, 1.5419048
2840.0, 1.5378057
2850.0, 1.5337313
2860.0, 1.5296816
2870.0, 1.5256561
2880.0, 1.5216548
2890.0, 1.5176775
2900.0, 1.5137241
2910.0, 1.509794
2920.0, 1.5058872
2930.0, 1.5020034
2940.0, 1.4981426
2950.0, 1.4943044
2960.0, 1.4904885
2970.0, 1.486695
2980.0, 1.4829235
2990.0, 1.4791738
3000.0, 1.4754456
