Energy (in eV), SEEE yield of material sc2k-NASCAP at isotropic incidence
   X,       Y
0.0, 0.0
10.0, 0.121718235
20.0, 0.24258956
30.0, 0.3628364
40.0, 0.48250794
50.0, 0.601591
60.0, 0.72007227
70.0, 0.8379606
80.0, 0.9552398
90.0, 1.0718417
100.0, 1.1877646
110.0, 1.3030183
120.0, 1.417539
130.0, 1.5313052
140.0, 1.644315
150.0, 1.756526
160.0, 1.8679197
170.0, 1.978484
180.0, 2.088186
190.0, 2.1970117
200.0, 2.3049417
210.0, 2.4119406
220.0, 2.5180147
230.0, 2.6231358
240.0, 2.727286
250.0, 2.8304422
260.0, 2.9326012
270.0, 3.0337358
280.0, 3.1338432
290.0, 3.2329023
300.0, 3.330902
310.0, 3.4278307
320.0, 3.5236762
330.0, 3.6184285
340.0, 3.7120736
350.0, 3.8046136
360.0, 3.8960254
370.0, 3.986306
380.0, 4.0754576
390.0, 4.1634555
400.0, 4.2503085
410.0, 4.336005
420.0, 4.4205427
430.0, 4.503908
440.0, 4.58611
450.0, 4.6671367
460.0, 4.7469897
470.0, 4.825664
480.0, 4.9031596
490.0, 4.9794774
500.0, 5.0546126
510.0, 5.128567
520.0, 5.201342
530.0, 5.272939
540.0, 5.343357
550.0, 5.4125996
560.0, 5.4806685
570.0, 5.5475674
580.0, 5.613298
590.0, 5.6778646
600.0, 5.7412715
610.0, 5.803522
620.0, 5.8646226
630.0, 5.9245777
640.0, 5.9833922
650.0, 6.041074
660.0, 6.0976253
670.0, 6.1530557
680.0, 6.207371
690.0, 6.2605786
700.0, 6.3126864
710.0, 6.363701
720.0, 6.4136305
730.0, 6.462483
740.0, 6.5102677
750.0, 6.556993
760.0, 6.602666
770.0, 6.6472993
780.0, 6.690899
790.0, 6.733475
800.0, 6.775038
810.0, 6.8155985
820.0, 6.855164
830.0, 6.8937473
840.0, 6.9313564
850.0, 6.9680033
860.0, 7.003697
870.0, 7.0384493
880.0, 7.072271
890.0, 7.1051717
900.0, 7.1371636
910.0, 7.168257
920.0, 7.198463
930.0, 7.227793
940.0, 7.256259
950.0, 7.2838707
960.0, 7.31064
970.0, 7.336578
980.0, 7.3616962
990.0, 7.386006
1000.0, 7.4095197
1010.0, 7.4322467
1020.0, 7.4541993
1030.0, 7.475391
1040.0, 7.495829
1050.0, 7.5155287
1060.0, 7.5344973
1070.0, 7.55275
1080.0, 7.5702953
1090.0, 7.587147
1100.0, 7.603314
1110.0, 7.6188083
1120.0, 7.6336427
1130.0, 7.6478257
1140.0, 7.6613693
1150.0, 7.674283
1160.0, 7.6865807
1170.0, 7.6982703
1180.0, 7.7093644
1190.0, 7.7198715
1200.0, 7.7298055
1210.0, 7.739174
1220.0, 7.747989
1230.0, 7.7562604
1240.0, 7.7639976
1250.0, 7.771211
1260.0, 7.7779117
1270.0, 7.784109
1280.0, 7.7898116
1290.0, 7.795031
1300.0, 7.799777
1310.0, 7.804058
1320.0, 7.8078823
1330.0, 7.8112607
1340.0, 7.8142033
1350.0, 7.816718
1360.0, 7.8188133
1370.0, 7.8205
1380.0, 7.821785
1390.0, 7.822677
1400.0, 7.823186
1410.0, 7.8233185
1420.0, 7.823085
1430.0, 7.8224926
1440.0, 7.8215475
1450.0, 7.820262
1460.0, 7.8186398
1470.0, 7.8166895
1480.0, 7.8144226
1490.0, 7.811841
1500.0, 7.8089547
1510.0, 7.805773
1520.0, 7.802298
1530.0, 7.7985425
1540.0, 7.794509
1550.0, 7.790206
1560.0, 7.7856402
1570.0, 7.7808194
1580.0, 7.7757473
1590.0, 7.7704325
1600.0, 7.76488
1610.0, 7.7590976
1620.0, 7.7530904
1630.0, 7.7468634
1640.0, 7.740423
1650.0, 7.7337766
1660.0, 7.726928
1670.0, 7.719883
1680.0, 7.7126474
1690.0, 7.7052255
1700.0, 7.697624
1710.0, 7.689847
1720.0, 7.6818995
1730.0, 7.6737876
1740.0, 7.665514
1750.0, 7.657087
1760.0, 7.648507
1770.0, 7.63978
1780.0, 7.6309133
1790.0, 7.6219087
1800.0, 7.612768
1810.0, 7.603501
1820.0, 7.594106
1830.0, 7.584592
1840.0, 7.574961
1850.0, 7.5652165
1860.0, 7.5553613
1870.0, 7.545401
1880.0, 7.535338
1890.0, 7.525177
1900.0, 7.51492
1910.0, 7.5045705
1920.0, 7.494134
1930.0, 7.483612
1940.0, 7.4730062
1950.0, 7.4623213
1960.0, 7.451561
1970.0, 7.4407268
1980.0, 7.429823
1990.0, 7.4188504
2000.0, 7.407815
2010.0, 7.396716
2020.0, 7.385556
2030.0, 7.3743415
2040.0, 7.3630724
2050.0, 7.35175
2060.0, 7.3403788
2070.0, 7.32896
2080.0, 7.317496
2090.0, 7.3059893
2100.0, 7.2944407
2110.0, 7.282854
2120.0, 7.2712317
2130.0, 7.259574
2140.0, 7.247883
2150.0, 7.236164
2160.0, 7.224413
2170.0, 7.212637
2180.0, 7.2008343
2190.0, 7.1890087
2200.0, 7.1771626
2210.0, 7.1652937
2220.0, 7.153407
2230.0, 7.141504
2240.0, 7.129584
2250.0, 7.1176505
2260.0, 7.1057034
2270.0, 7.093745
2280.0, 7.081778
2290.0, 7.069802
2300.0, 7.0578165
2310.0, 7.0458274
2320.0, 7.0338326
2330.0, 7.021833
2340.0, 7.0098314
2350.0, 6.997829
2360.0, 6.9858246
2370.0, 6.9738216
2380.0, 6.96182
2390.0, 6.9498215
2400.0, 6.937826
2410.0, 6.925835
2420.0, 6.913851
2430.0, 6.9018717
2440.0, 6.8898993
2450.0, 6.8779364
2460.0, 6.8659816
2470.0, 6.854036
2480.0, 6.8421016
2490.0, 6.830178
2500.0, 6.8182654
2510.0, 6.8063664
2520.0, 6.794481
2530.0, 6.782609
2540.0, 6.77075
2550.0, 6.758908
2560.0, 6.7470818
2570.0, 6.7352705
2580.0, 6.723476
2590.0, 6.7116995
2600.0, 6.699942
2610.0, 6.6882024
2620.0, 6.676481
2630.0, 6.6647787
2640.0, 6.6530967
2650.0, 6.641435
2660.0, 6.6297946
2670.0, 6.6181746
2680.0, 6.6065764
2690.0, 6.5950007
2700.0, 6.583446
2710.0, 6.5719156
2720.0, 6.5604067
2730.0, 6.548922
2740.0, 6.537461
2750.0, 6.5260243
2760.0, 6.5146112
2770.0, 6.5032225
2780.0, 6.4918585
2790.0, 6.4805207
2800.0, 6.4692082
2810.0, 6.4579196
2820.0, 6.4466577
2830.0, 6.4354224
2840.0, 6.424214
2850.0, 6.4130306
2860.0, 6.4018745
2870.0, 6.3907456
2880.0, 6.3796434
2890.0, 6.368568
2900.0, 6.3575206
2910.0, 6.3465004
2920.0, 6.3355083
2930.0, 6.324543
2940.0, 6.3136067
2950.0, 6.302698
2960.0, 6.29182
2970.0, 6.2809677
2980.0, 6.2701435
2990.0, 6.2593484
3000.0, 6.2485833
3010.0, 6.237846
3020.0, 6.2271376
3030.0, 6.216458
3040.0, 6.2058067
3050.0, 6.1951866
3060.0, 6.184594
3070.0, 6.1740303
3080.0, 6.1634965
3090.0, 6.152992
3100.0, 6.1425166
3110.0, 6.13207
3120.0, 6.1216545
3130.0, 6.111267
3140.0, 6.10091
3150.0, 6.090582
3160.0, 6.080283
3170.0, 6.0700135
3180.0, 6.059775
3190.0, 6.049565
3200.0, 6.039384
3210.0, 6.029233
3220.0, 6.0191116
3230.0, 6.009021
3240.0, 5.9989586
3250.0, 5.9889264
3260.0, 5.978923
3270.0, 5.9689484
3280.0, 5.959005
3290.0, 5.9490905
3300.0, 5.9392047
3310.0, 5.92935
3320.0, 5.919523
3330.0, 5.9097257
3340.0, 5.8999596
3350.0, 5.89022
3360.0, 5.880512
3370.0, 5.8708305
3380.0, 5.861181
3390.0, 5.8515587
3400.0, 5.841967
3410.0, 5.832404
3420.0, 5.822869
3430.0, 5.8133636
3440.0, 5.8038864
3450.0, 5.7944384
3460.0, 5.7850194
3470.0, 5.7756305
3480.0, 5.7662683
3490.0, 5.756936
3500.0, 5.747631
3510.0, 5.7383556
3520.0, 5.729108
3530.0, 5.719889
3540.0, 5.7106977
3550.0, 5.701536
3560.0, 5.692401
3570.0, 5.683295
3580.0, 5.6742167
3590.0, 5.665167
3600.0, 5.656144
3610.0, 5.6471486
3620.0, 5.638182
3630.0, 5.629243
3640.0, 5.6203313
3650.0, 5.6114473
3660.0, 5.60259
3670.0, 5.5937614
3680.0, 5.5849595
3690.0, 5.5761847
3700.0, 5.567437
3710.0, 5.5587163
3720.0, 5.5500226
3730.0, 5.541356
3740.0, 5.5327163
3750.0, 5.524103
3760.0, 5.5155163
3770.0, 5.5069566
3780.0, 5.498423
3790.0, 5.489916
3800.0, 5.4814353
3810.0, 5.4729805
3820.0, 5.4645524
3830.0, 5.456149
3840.0, 5.447774
3850.0, 5.4394236
3860.0, 5.431099
3870.0, 5.422799
3880.0, 5.414527
3890.0, 5.406279
3900.0, 5.398057
3910.0, 5.3898597
3920.0, 5.381688
3930.0, 5.373543
3940.0, 5.365421
3950.0, 5.357324
3960.0, 5.3492537
3970.0, 5.341207
3980.0, 5.333185
3990.0, 5.3251886
4000.0, 5.317216
4010.0, 5.3092685
4020.0, 5.301345
4030.0, 5.2934465
4040.0, 5.285571
4050.0, 5.277721
4060.0, 5.269894
4070.0, 5.262092
4080.0, 5.254313
4090.0, 5.2465577
4100.0, 5.2388268
4110.0, 5.23112
4120.0, 5.223437
4130.0, 5.215776
4140.0, 5.208139
4150.0, 5.200525
4160.0, 5.1929336
4170.0, 5.1853676
4180.0, 5.1778226
4190.0, 5.1703014
4200.0, 5.162803
4210.0, 5.1553273
4220.0, 5.1478744
4230.0, 5.1404443
4240.0, 5.133036
4250.0, 5.125651
4260.0, 5.1182866
4270.0, 5.1109467
4280.0, 5.103627
4290.0, 5.0963316
4300.0, 5.089057
4310.0, 5.0818048
4320.0, 5.0745735
4330.0, 5.0673647
4340.0, 5.060177
4350.0, 5.0530114
4360.0, 5.045867
4370.0, 5.0387444
4380.0, 5.031643
4390.0, 5.024563
4400.0, 5.017504
4410.0, 5.0104666
4420.0, 5.0034494
4430.0, 4.996454
4440.0, 4.989478
4450.0, 4.9825234
4460.0, 4.97559
4470.0, 4.9686775
4480.0, 4.961785
4490.0, 4.954913
4500.0, 4.9480605
4510.0, 4.94123
4520.0, 4.934419
4530.0, 4.9276276
4540.0, 4.920857
4550.0, 4.914106
4560.0, 4.9073753
4570.0, 4.9006634
4580.0, 4.893972
4590.0, 4.8873
4600.0, 4.880648
4610.0, 4.8740153
4620.0, 4.8674016
4630.0, 4.8608074
4640.0, 4.8542333
4650.0, 4.8476777
4660.0, 4.841141
4670.0, 4.834624
4680.0, 4.8281255
4690.0, 4.821646
4700.0, 4.8151855
4710.0, 4.808743
4720.0, 4.8023205
4730.0, 4.795916
4740.0, 4.78953
4750.0, 4.783163
4760.0, 4.776812
4770.0, 4.7704816
4780.0, 4.764169
4790.0, 4.757875
4800.0, 4.7515984
4810.0, 4.7453403
4820.0, 4.739099
4830.0, 4.7328773
4840.0, 4.726672
4850.0, 4.7204857
4860.0, 4.714317
4870.0, 4.708164
4880.0, 4.70203
4890.0, 4.6959133
4900.0, 4.689814
4910.0, 4.6837316
4920.0, 4.677667
4930.0, 4.6716194
4940.0, 4.6655884
4950.0, 4.6595755
4960.0, 4.653579
4970.0, 4.6475997
4980.0, 4.6416364
4990.0, 4.6356907
5000.0, 4.6297607
5010.0, 4.6238494
5020.0, 4.617953
5030.0, 4.6120734
5040.0, 4.6062107
5050.0, 4.6003637
5060.0, 4.594534
5070.0, 4.5887194
5080.0, 4.5829215
5090.0, 4.5771403
5100.0, 4.5713744
5110.0, 4.565624
5120.0, 4.5598907
5130.0, 4.554174
5140.0, 4.5484715
5150.0, 4.542785
5160.0, 4.5371146
5170.0, 4.5314593
5180.0, 4.5258203
5190.0, 4.5201964
5200.0, 4.5145884
5210.0, 4.5089946
5220.0, 4.5034175
5230.0, 4.497855
5240.0, 4.4923077
5250.0, 4.4867754
5260.0, 4.4812593
5270.0, 4.4757566
5280.0, 4.4702697
5290.0, 4.4647975
5300.0, 4.4593406
5310.0, 4.4538984
5320.0, 4.44847
5330.0, 4.443058
5340.0, 4.437659
5350.0, 4.4322753
5360.0, 4.4269056
5370.0, 4.4215517
5380.0, 4.4162107
5390.0, 4.410885
5400.0, 4.405573
5410.0, 4.400275
5420.0, 4.3949924
5430.0, 4.3897233
5440.0, 4.3844676
5450.0, 4.379226
5460.0, 4.373999
5470.0, 4.368786
5480.0, 4.3635864
5490.0, 4.358401
5500.0, 4.3532286
5510.0, 4.3480706
5520.0, 4.342926
5530.0, 4.337795
5540.0, 4.3326774
5550.0, 4.327574
5560.0, 4.3224826
5570.0, 4.3174057
5580.0, 4.3123426
5590.0, 4.3072915
5600.0, 4.302254
5610.0, 4.2972302
5620.0, 4.2922196
5630.0, 4.2872205
5640.0, 4.2822356
5650.0, 4.277265
5660.0, 4.272305
5670.0, 4.2673593
5680.0, 4.2624254
5690.0, 4.2575054
5700.0, 4.2525973
5710.0, 4.247702
5720.0, 4.24282
5730.0, 4.23795
5740.0, 4.2330933
5750.0, 4.228247
5760.0, 4.2234154
5770.0, 4.2185955
5780.0, 4.2137876
5790.0, 4.2089925
5800.0, 4.2042093
5810.0, 4.199438
5820.0, 4.1946797
5830.0, 4.189934
5840.0, 4.1851983
5850.0, 4.1804757
5860.0, 4.175765
5870.0, 4.171067
5880.0, 4.16638
5890.0, 4.161706
5900.0, 4.1570425
5910.0, 4.1523914
5920.0, 4.147752
5930.0, 4.1431236
5940.0, 4.138508
5950.0, 4.133903
5960.0, 4.12931
5970.0, 4.1247287
5980.0, 4.1201587
5990.0, 4.1155996
6000.0, 4.111052
6010.0, 4.106517
6020.0, 4.1019917
6030.0, 4.0974784
6040.0, 4.092976
6050.0, 4.0884852
6060.0, 4.0840054
6070.0, 4.079536
6080.0, 4.075078
6090.0, 4.0706315
6100.0, 4.066196
6110.0, 4.061771
6120.0, 4.0573573
6130.0, 4.0529537
6140.0, 4.048562
6150.0, 4.0441794
6160.0, 4.0398088
6170.0, 4.035449
6180.0, 4.031099
6190.0, 4.0267606
6200.0, 4.022432
6210.0, 4.0181146
6220.0, 4.0138063
6230.0, 4.0095105
6240.0, 4.0052238
6250.0, 4.0009475
6260.0, 3.9966822
6270.0, 3.9924264
6280.0, 3.9881816
6290.0, 3.9839466
6300.0, 3.9797218
6310.0, 3.975507
6320.0, 3.9713025
6330.0, 3.9671085
6340.0, 3.9629242
6350.0, 3.9587493
6360.0, 3.954586
6370.0, 3.950431
6380.0, 3.946287
6390.0, 3.9421525
6400.0, 3.9380271
6410.0, 3.9339125
6420.0, 3.9298067
6430.0, 3.9257119
6440.0, 3.9216259
6450.0, 3.9175503
6460.0, 3.9134834
6470.0, 3.9094267
6480.0, 3.9053795
6490.0, 3.9013414
6500.0, 3.8973136
6510.0, 3.8932946
6520.0, 3.8892853
6530.0, 3.885285
6540.0, 3.8812947
6550.0, 3.877313
6560.0, 3.873341
6570.0, 3.8693786
6580.0, 3.8654249
6590.0, 3.8614805
6600.0, 3.857545
6610.0, 3.8536193
6620.0, 3.8497024
6630.0, 3.8457944
6640.0, 3.8418956
6650.0, 3.838006
6660.0, 3.8341253
6670.0, 3.8302531
6680.0, 3.8263905
6690.0, 3.8225355
6700.0, 3.8186913
6710.0, 3.8148544
6720.0, 3.8110273
6730.0, 3.807208
6740.0, 3.803398
6750.0, 3.7995963
6760.0, 3.7958033
6770.0, 3.7920194
6780.0, 3.7882433
6790.0, 3.7844765
6800.0, 3.7807188
6810.0, 3.7769685
6820.0, 3.7732272
6830.0, 3.769494
6840.0, 3.7657697
6850.0, 3.7620537
6860.0, 3.7583456
6870.0, 3.7546465
6880.0, 3.7509553
6890.0, 3.7472732
6900.0, 3.7435985
6910.0, 3.739932
6920.0, 3.736274
6930.0, 3.7326243
6940.0, 3.7289824
6950.0, 3.7253485
6960.0, 3.721723
6970.0, 3.7181058
6980.0, 3.7144966
6990.0, 3.7108953
7000.0, 3.707302
7010.0, 3.703716
7020.0, 3.7001388
7030.0, 3.6965692
7040.0, 3.6930082
7050.0, 3.6894536
7060.0, 3.6859078
7070.0, 3.6823697
7080.0, 3.6788392
7090.0, 3.6753163
7100.0, 3.6718013
7110.0, 3.6682942
7120.0, 3.664795
7130.0, 3.6613026
7140.0, 3.6578183
7150.0, 3.6543415
7160.0, 3.6508727
7170.0, 3.647411
7180.0, 3.6439574
7190.0, 3.6405108
7200.0, 3.6370718
7210.0, 3.6336396
7220.0, 3.6302154
7230.0, 3.6267986
7240.0, 3.6233895
7250.0, 3.619987
7260.0, 3.616593
7270.0, 3.6132052
7280.0, 3.6098247
7290.0, 3.6064522
7300.0, 3.603086
7310.0, 3.5997283
7320.0, 3.5963767
7330.0, 3.5930328
7340.0, 3.5896955
7350.0, 3.586366
7360.0, 3.5830429
7370.0, 3.579727
7380.0, 3.5764189
7390.0, 3.573117
7400.0, 3.5698225
7410.0, 3.5665348
7420.0, 3.5632534
7430.0, 3.5599806
7440.0, 3.556713
7450.0, 3.5534534
7460.0, 3.5502
7470.0, 3.5469537
7480.0, 3.5437143
7490.0, 3.540482
7500.0, 3.5372558
7510.0, 3.534037
7520.0, 3.530824
7530.0, 3.527619
7540.0, 3.5244198
7550.0, 3.521228
7560.0, 3.5180416
7570.0, 3.5148625
7580.0, 3.5116906
7590.0, 3.5085242
7600.0, 3.5053654
7610.0, 3.5022128
7620.0, 3.4990666
7630.0, 3.4959266
7640.0, 3.4927936
7650.0, 3.4896667
7660.0, 3.4865468
7670.0, 3.4834332
7680.0, 3.4803255
7690.0, 3.4772246
7700.0, 3.47413
7710.0, 3.4710412
7720.0, 3.4679594
7730.0, 3.4648833
7740.0, 3.4618134
7750.0, 3.4587502
7760.0, 3.4556935
7770.0, 3.4526434
7780.0, 3.4495983
7790.0, 3.4465604
7800.0, 3.4435275
7810.0, 3.4405017
7820.0, 3.4374824
7830.0, 3.4344683
7840.0, 3.4314604
7850.0, 3.4284592
7860.0, 3.425463
7870.0, 3.4224741
7880.0, 3.41949
7890.0, 3.4165127
7900.0, 3.4135413
7910.0, 3.4105752
7920.0, 3.407616
7930.0, 3.4046621
7940.0, 3.401714
7950.0, 3.3987725
7960.0, 3.3958364
7970.0, 3.3929064
7980.0, 3.3899815
7990.0, 3.3870633
8000.0, 3.3841498
8010.0, 3.3812432
8020.0, 3.378342
8030.0, 3.3754466
8040.0, 3.3725574
8050.0, 3.3696728
8060.0, 3.3667946
8070.0, 3.3639219
8080.0, 3.361055
8090.0, 3.358193
8100.0, 3.3553371
8110.0, 3.3524876
8120.0, 3.3496432
8130.0, 3.3468041
8140.0, 3.3439708
8150.0, 3.341143
8160.0, 3.3383207
8170.0, 3.3355036
8180.0, 3.3326917
8190.0, 3.3298864
8200.0, 3.3270855
8210.0, 3.324291
8220.0, 3.3215013
8230.0, 3.3187177
8240.0, 3.3159382
8250.0, 3.313165
8260.0, 3.310397
8270.0, 3.307634
8280.0, 3.304877
8290.0, 3.3021247
8300.0, 3.299378
8310.0, 3.2966368
8320.0, 3.2939005
8330.0, 3.2911696
8340.0, 3.288444
8350.0, 3.2857232
8360.0, 3.283008
8370.0, 3.280298
8380.0, 3.2775931
8390.0, 3.2748935
8400.0, 3.272199
8410.0, 3.269509
8420.0, 3.266825
8430.0, 3.2641459
8440.0, 3.2614715
8450.0, 3.2588024
8460.0, 3.2561383
8470.0, 3.2534792
8480.0, 3.2508256
8490.0, 3.2481766
8500.0, 3.2455328
8510.0, 3.242893
8520.0, 3.2402594
8530.0, 3.2376304
8540.0, 3.2350059
8550.0, 3.2323866
8560.0, 3.2297726
8570.0, 3.2271636
8580.0, 3.2245586
8590.0, 3.2219586
8600.0, 3.2193637
8610.0, 3.216774
8620.0, 3.214189
8630.0, 3.2116086
8640.0, 3.2090333
8650.0, 3.206463
8660.0, 3.2038965
8670.0, 3.2013352
8680.0, 3.1987789
8690.0, 3.1962273
8700.0, 3.19368
8710.0, 3.1911376
8720.0, 3.1886
8730.0, 3.186067
8740.0, 3.183539
8750.0, 3.1810155
8760.0, 3.1784961
8770.0, 3.175982
8780.0, 3.1734722
8790.0, 3.1709664
8800.0, 3.168466
8810.0, 3.16597
8820.0, 3.1634786
8830.0, 3.1609914
8840.0, 3.1585097
8850.0, 3.1560311
8860.0, 3.1535578
8870.0, 3.1510894
8880.0, 3.148625
8890.0, 3.146165
8900.0, 3.1437092
8910.0, 3.1412585
8920.0, 3.1388123
8930.0, 3.1363695
8940.0, 3.133932
8950.0, 3.1314986
8960.0, 3.1290703
8970.0, 3.1266448
8980.0, 3.1242244
8990.0, 3.1218092
9000.0, 3.1193972
9010.0, 3.11699
9020.0, 3.114587
9030.0, 3.1121886
9040.0, 3.1097944
9050.0, 3.107404
9060.0, 3.105018
9070.0, 3.1026368
9080.0, 3.1002593
9090.0, 3.097886
9100.0, 3.095517
9110.0, 3.0931528
9120.0, 3.0907924
9130.0, 3.0884361
9140.0, 3.0860834
9150.0, 3.0837355
9160.0, 3.081392
9170.0, 3.079052
9180.0, 3.0767164
9190.0, 3.0743856
9200.0, 3.072058
9210.0, 3.069735
9220.0, 3.0674155
9230.0, 3.0651007
9240.0, 3.0627897
9250.0, 3.0604825
9260.0, 3.0581791
9270.0, 3.0558805
9280.0, 3.0535862
9290.0, 3.0512948
9300.0, 3.0490081
9310.0, 3.046725
9320.0, 3.044446
9330.0, 3.042171
9340.0, 3.0398998
9350.0, 3.0376322
9360.0, 3.0353699
9370.0, 3.0331106
9380.0, 3.030855
9390.0, 3.0286036
9400.0, 3.026356
9410.0, 3.0241122
9420.0, 3.0218725
9430.0, 3.0196366
9440.0, 3.0174038
9450.0, 3.0151763
9460.0, 3.0129516
9470.0, 3.0107307
9480.0, 3.0085144
9490.0, 3.0063012
9500.0, 3.0040922
9510.0, 3.0018861
9520.0, 2.9996843
9530.0, 2.9974868
9540.0, 2.9952922
9550.0, 2.9931023
9560.0, 2.990915
9570.0, 2.9887323
9580.0, 2.986553
9590.0, 2.984377
9600.0, 2.982205
9610.0, 2.980037
9620.0, 2.9778728
9630.0, 2.9757113
9640.0, 2.9735537
9650.0, 2.9714005
9660.0, 2.96925
9670.0, 2.9671044
9680.0, 2.9649608
9690.0, 2.962822
9700.0, 2.9606867
9710.0, 2.9585543
9720.0, 2.956426
9730.0, 2.954301
9740.0, 2.9521797
9750.0, 2.9500618
9760.0, 2.9479477
9770.0, 2.9458363
9780.0, 2.9437296
9790.0, 2.941626
9800.0, 2.9395258
9810.0, 2.9374287
9820.0, 2.9353354
9830.0, 2.9332457
9840.0, 2.9311597
9850.0, 2.9290764
9860.0, 2.9269972
9870.0, 2.9249213
9880.0, 2.9228487
9890.0, 2.9207797
9900.0, 2.9187143
9910.0, 2.9166515
9920.0, 2.9145927
9930.0, 2.9125373
9940.0, 2.9104853
9950.0, 2.9084363
9960.0, 2.9063911
9970.0, 2.9043486
9980.0, 2.9023101
9990.0, 2.9002752
10000.0, 2.8982427
10010.0, 2.896214
10020.0, 2.8941884
10030.0, 2.8921661
10040.0, 2.890147
10050.0, 2.8881316
10060.0, 2.8861194
10070.0, 2.8841105
10080.0, 2.8821046
10090.0, 2.8801017
10100.0, 2.8781025
10110.0, 2.876107
10120.0, 2.8741138
10130.0, 2.872124
10140.0, 2.8701375
10150.0, 2.868155
10160.0, 2.8661745
10170.0, 2.864198
10180.0, 2.8622239
10190.0, 2.8602538
10200.0, 2.8582864
10210.0, 2.8563225
10220.0, 2.8543608
10230.0, 2.8524032
10240.0, 2.8504486
10250.0, 2.848497
10260.0, 2.8465488
10270.0, 2.844603
10280.0, 2.842661
10290.0, 2.8407216
10300.0, 2.8387854
10310.0, 2.8368523
10320.0, 2.8349226
10330.0, 2.8329957
10340.0, 2.8310719
10350.0, 2.8291512
10360.0, 2.827233
10370.0, 2.825318
10380.0, 2.8234065
10390.0, 2.821498
10400.0, 2.8195925
10410.0, 2.8176894
10420.0, 2.81579
10430.0, 2.813893
10440.0, 2.8119996
10450.0, 2.8101084
10460.0, 2.808221
10470.0, 2.8063362
10480.0, 2.8044543
10490.0, 2.8025749
10500.0, 2.8006992
10510.0, 2.798826
10520.0, 2.7969565
10530.0, 2.795089
10540.0, 2.7932243
10550.0, 2.7913628
10560.0, 2.7895043
10570.0, 2.7876492
10580.0, 2.785796
10590.0, 2.783946
10600.0, 2.7820985
10610.0, 2.780255
10620.0, 2.778414
10630.0, 2.7765746
10640.0, 2.774739
10650.0, 2.7729063
10660.0, 2.771077
10670.0, 2.7692494
10680.0, 2.7674248
10690.0, 2.7656035
10700.0, 2.7637846
10710.0, 2.7619689
10720.0, 2.7601554
10730.0, 2.7583454
10740.0, 2.756538
10750.0, 2.754733
10760.0, 2.7529309
10770.0, 2.7511313
10780.0, 2.749335
10790.0, 2.7475412
10800.0, 2.74575
10810.0, 2.743961
10820.0, 2.7421758
10830.0, 2.7403932
10840.0, 2.7386127
10850.0, 2.7368352
10860.0, 2.7350602
10870.0, 2.733288
10880.0, 2.7315185
10890.0, 2.7297518
10900.0, 2.7279878
10910.0, 2.7262259
10920.0, 2.7244673
10930.0, 2.7227108
10940.0, 2.7209573
10950.0, 2.7192068
10960.0, 2.7174582
10970.0, 2.7157128
10980.0, 2.71397
10990.0, 2.712229
11000.0, 2.7104914
11010.0, 2.7087564
11020.0, 2.7070236
11030.0, 2.7052934
11040.0, 2.7035663
11050.0, 2.7018416
11060.0, 2.7001193
11070.0, 2.6983995
11080.0, 2.6966822
11090.0, 2.6949677
11100.0, 2.6932557
11110.0, 2.6915462
11120.0, 2.6898391
11130.0, 2.6881342
11140.0, 2.6864326
11150.0, 2.6847334
11160.0, 2.6830366
11170.0, 2.6813416
11180.0, 2.6796496
11190.0, 2.6779606
11200.0, 2.6762738
11210.0, 2.6745887
11220.0, 2.6729069
11230.0, 2.671228
11240.0, 2.6695511
11250.0, 2.6678765
11260.0, 2.6662037
11270.0, 2.6645346
11280.0, 2.662867
11290.0, 2.661203
