Energy (in eV), SEEE yield of material ka2k-NASCAP at incidence 0.0 degree
   X,       Y
0.0, 0.0
10.0, 0.34473944
20.0, 0.64621043
30.0, 0.91242886
40.0, 1.1457858
50.0, 1.3479649
60.0, 1.5206678
70.0, 1.6657839
80.0, 1.7854003
90.0, 1.8817564
100.0, 1.9571792
110.0, 2.0140152
120.0, 2.0545707
130.0, 2.0810595
140.0, 2.0955627
150.0, 2.1
160.0, 2.0961115
170.0, 2.085449
180.0, 2.069375
190.0, 2.0490692
200.0, 2.025536
210.0, 1.9996223
220.0, 1.9720298
230.0, 1.9433322
240.0, 1.9139922
250.0, 1.8843776
260.0, 1.8547748
270.0, 1.8254037
280.0, 1.7964287
290.0, 1.7679704
300.0, 1.7401127
310.0, 1.7129129
320.0, 1.6864048
330.0, 1.6606071
340.0, 1.6355255
350.0, 1.6111553
360.0, 1.5874861
370.0, 1.5645038
380.0, 1.5421891
390.0, 1.5205222
400.0, 1.4994813
410.0, 1.4790447
420.0, 1.4591902
430.0, 1.4398962
440.0, 1.4211413
450.0, 1.4029047
460.0, 1.3851668
470.0, 1.3679082
480.0, 1.3511105
490.0, 1.334756
500.0, 1.3188279
510.0, 1.3033103
520.0, 1.2881874
530.0, 1.2734448
540.0, 1.2590685
550.0, 1.245045
560.0, 1.2313617
570.0, 1.2180064
580.0, 1.2049674
590.0, 1.1922334
600.0, 1.1797943
610.0, 1.1676395
620.0, 1.1557595
630.0, 1.1441451
640.0, 1.1327873
650.0, 1.1216775
660.0, 1.110808
670.0, 1.1001707
680.0, 1.0897582
690.0, 1.0795634
700.0, 1.0695795
710.0, 1.0597998
720.0, 1.0502181
730.0, 1.0408282
740.0, 1.0316247
750.0, 1.0226015
760.0, 1.0137537
770.0, 1.0050758
780.0, 0.99656314
790.0, 0.9882107
800.0, 0.98001415
810.0, 0.9719688
820.0, 0.96407074
830.0, 0.95631564
840.0, 0.9486997
850.0, 0.94121885
860.0, 0.93386984
870.0, 0.92664903
880.0, 0.9195528
890.0, 0.912578
900.0, 0.90572155
910.0, 0.8989802
920.0, 0.89235127
930.0, 0.8858316
940.0, 0.87941873
950.0, 0.8731097
960.0, 0.86690223
970.0, 0.86079353
980.0, 0.8547815
990.0, 0.8488635
1000.0, 0.8430375
1010.0, 0.83730125
1020.0, 0.8316526
1030.0, 0.8260895
1040.0, 0.82061005
1050.0, 0.8152122
1060.0, 0.8098942
1070.0, 0.8046541
1080.0, 0.79949033
1090.0, 0.7944011
1100.0, 0.78938466
1110.0, 0.78443956
1120.0, 0.77956414
1130.0, 0.774757
1140.0, 0.7700166
1150.0, 0.7653415
1160.0, 0.76073045
1170.0, 0.75618196
1180.0, 0.7516947
1190.0, 0.7472674
1200.0, 0.74289894
1210.0, 0.7385882
1220.0, 0.73433375
1230.0, 0.7301346
1240.0, 0.72598964
1250.0, 0.72189784
1260.0, 0.7178581
1270.0, 0.7138693
1280.0, 0.70993066
1290.0, 0.70604104
1300.0, 0.7021995
1310.0, 0.69840527
1320.0, 0.69465727
1330.0, 0.69095474
1340.0, 0.687297
1350.0, 0.6836828
1360.0, 0.68011165
1370.0, 0.6765827
1380.0, 0.6730951
1390.0, 0.6696483
1400.0, 0.6662413
1410.0, 0.66287357
1420.0, 0.65954435
1430.0, 0.6562529
1440.0, 0.6529987
1450.0, 0.649781
1460.0, 0.6465992
1470.0, 0.6434527
1480.0, 0.6403409
1490.0, 0.6372631
1500.0, 0.6342189
1510.0, 0.6312076
1520.0, 0.62822866
1530.0, 0.62528163
1540.0, 0.6223659
1550.0, 0.619481
1560.0, 0.6166264
1570.0, 0.6138016
1580.0, 0.61100614
1590.0, 0.60823953
1600.0, 0.6055014
1610.0, 0.60279113
1620.0, 0.60010844
1630.0, 0.59745276
1640.0, 0.5948238
1650.0, 0.59222114
1660.0, 0.5896442
1670.0, 0.58709276
1680.0, 0.58456635
1690.0, 0.5820645
1700.0, 0.57958716
1710.0, 0.57713366
1720.0, 0.57470375
1730.0, 0.5722971
1740.0, 0.5699132
1750.0, 0.567552
1760.0, 0.5652129
1770.0, 0.56289583
1780.0, 0.5606002
1790.0, 0.5583259
1800.0, 0.55607253
1810.0, 0.5538398
1820.0, 0.55162746
1830.0, 0.54943526
1840.0, 0.5472628
1850.0, 0.54510987
1860.0, 0.5429762
1870.0, 0.5408614
1880.0, 0.53876543
1890.0, 0.5366879
1900.0, 0.5346286
1910.0, 0.53258723
1920.0, 0.5305636
1930.0, 0.5285574
1940.0, 0.52656853
1950.0, 0.5245967
1960.0, 0.52264154
1970.0, 0.520703
1980.0, 0.5187808
1990.0, 0.5168748
2000.0, 0.5149847
2010.0, 0.5131103
2020.0, 0.51125145
2030.0, 0.5094079
2040.0, 0.50757945
2050.0, 0.505766
2060.0, 0.5039672
2070.0, 0.5021831
2080.0, 0.5004133
2090.0, 0.49865764
2100.0, 0.49691606
2110.0, 0.49518836
2120.0, 0.49347422
2130.0, 0.4917736
2140.0, 0.49008638
2150.0, 0.4884123
2160.0, 0.4867513
2170.0, 0.4851031
2180.0, 0.48346764
2190.0, 0.48184472
2200.0, 0.4802342
2210.0, 0.47863597
2220.0, 0.47704983
2230.0, 0.47547564
2240.0, 0.47391334
2250.0, 0.47236273
2260.0, 0.4708236
2270.0, 0.46929595
2280.0, 0.46777955
2290.0, 0.46627435
2300.0, 0.46478015
2310.0, 0.4632969
2320.0, 0.46182445
2330.0, 0.46036258
2340.0, 0.45891133
2350.0, 0.45747045
2360.0, 0.4560399
2370.0, 0.4546196
2380.0, 0.45320928
2390.0, 0.45180896
2400.0, 0.45041853
2410.0, 0.44903785
2420.0, 0.44766682
2430.0, 0.44630533
2440.0, 0.44495323
2450.0, 0.44361055
2460.0, 0.44227707
2470.0, 0.44095272
2480.0, 0.4396374
2490.0, 0.43833107
2500.0, 0.43703353
2510.0, 0.4357448
2520.0, 0.4344647
2530.0, 0.4331932
2540.0, 0.43193015
2550.0, 0.43067557
2560.0, 0.42942923
2570.0, 0.42819113
2580.0, 0.42696118
2590.0, 0.4257393
2600.0, 0.4245254
2610.0, 0.4233193
2620.0, 0.42212114
2630.0, 0.4209306
2640.0, 0.41974783
2650.0, 0.41857263
2660.0, 0.4174049
2670.0, 0.41624463
2680.0, 0.41509163
2690.0, 0.413946
2700.0, 0.41280755
2710.0, 0.41167626
2720.0, 0.41055205
2730.0, 0.40943488
2740.0, 0.4083246
2750.0, 0.40722123
2760.0, 0.40612462
2770.0, 0.40503475
2780.0, 0.40395153
2790.0, 0.40287495
2800.0, 0.40180492
2810.0, 0.40074137
2820.0, 0.39968428
2830.0, 0.39863357
2840.0, 0.39758906
2850.0, 0.3965509
2860.0, 0.39551884
2870.0, 0.394493
2880.0, 0.39347318
2890.0, 0.3924594
2900.0, 0.39145157
2910.0, 0.3904496
2920.0, 0.38945356
2930.0, 0.38846332
2940.0, 0.3874788
2950.0, 0.38649997
2960.0, 0.38552678
2970.0, 0.3845592
2980.0, 0.3835972
2990.0, 0.3826407
3000.0, 0.38168958
