Energy (in eV), SEEE yield of material sc2k-NASCAP at incidence 90.0 degree
   X,       Y
0.0, 0.0
10.0, 0.121974505
20.0, 0.24331374
30.0, 0.3641809
40.0, 0.48460656
50.0, 0.6045924
60.0, 0.7241298
70.0, 0.84320426
80.0, 0.9618012
90.0, 1.0799023
100.0, 1.1974866
110.0, 1.3145356
120.0, 1.4310309
130.0, 1.5469522
140.0, 1.6622795
150.0, 1.7769945
160.0, 1.8910779
170.0, 2.0045114
180.0, 2.1172757
190.0, 2.2293541
200.0, 2.3407302
210.0, 2.4513855
220.0, 2.5613036
230.0, 2.6704702
240.0, 2.778867
250.0, 2.8864808
260.0, 2.9932945
270.0, 3.0992968
280.0, 3.2044709
290.0, 3.308806
300.0, 3.412286
310.0, 3.5149019
320.0, 3.6166394
330.0, 3.7174869
340.0, 3.8174334
350.0, 3.916469
360.0, 4.0145817
370.0, 4.1117625
380.0, 4.208001
390.0, 4.3032894
400.0, 4.3976164
410.0, 4.490978
420.0, 4.583361
430.0, 4.6747622
440.0, 4.765173
450.0, 4.854586
460.0, 4.942995
470.0, 5.030395
480.0, 5.1167803
490.0, 5.2021456
500.0, 5.2864847
510.0, 5.3697963
520.0, 5.452073
530.0, 5.533313
540.0, 5.613512
550.0, 5.692668
560.0, 5.7707767
570.0, 5.847838
580.0, 5.9238477
590.0, 5.9988065
600.0, 6.0727115
610.0, 6.1455617
620.0, 6.217357
630.0, 6.288098
640.0, 6.357781
650.0, 6.426411
660.0, 6.4939857
670.0, 6.5605063
680.0, 6.625973
690.0, 6.6903906
700.0, 6.7537565
710.0, 6.8160763
720.0, 6.8773494
730.0, 6.93758
740.0, 6.9967704
750.0, 7.0549235
760.0, 7.112042
770.0, 7.168129
780.0, 7.223191
790.0, 7.277228
800.0, 7.330247
810.0, 7.382251
820.0, 7.4332447
830.0, 7.483234
840.0, 7.532222
850.0, 7.5802145
860.0, 7.6272187
870.0, 7.673237
880.0, 7.718278
890.0, 7.762346
900.0, 7.805446
910.0, 7.8475866
920.0, 7.8887725
930.0, 7.9290113
940.0, 7.9683084
950.0, 8.006673
960.0, 8.044107
970.0, 8.080626
980.0, 8.116228
990.0, 8.150926
1000.0, 8.184726
1010.0, 8.217635
1020.0, 8.249661
1030.0, 8.280812
1040.0, 8.311095
1050.0, 8.34052
1060.0, 8.369094
1070.0, 8.396824
1080.0, 8.423718
1090.0, 8.449788
1100.0, 8.475038
1110.0, 8.499478
1120.0, 8.523117
1130.0, 8.545964
1140.0, 8.568027
1150.0, 8.5893135
1160.0, 8.609833
1170.0, 8.629597
1180.0, 8.648608
1190.0, 8.666882
1200.0, 8.684422
1210.0, 8.701241
1220.0, 8.717344
1230.0, 8.732745
1240.0, 8.747448
1250.0, 8.761464
1260.0, 8.774803
1270.0, 8.787474
1280.0, 8.799482
1290.0, 8.810841
1300.0, 8.821557
1310.0, 8.83164
1320.0, 8.841099
1330.0, 8.849942
1340.0, 8.85818
1350.0, 8.86582
1360.0, 8.872872
1370.0, 8.879343
1380.0, 8.885244
1390.0, 8.890583
1400.0, 8.89537
1410.0, 8.899611
1420.0, 8.903317
1430.0, 8.906495
1440.0, 8.909156
1450.0, 8.911306
1460.0, 8.912956
1470.0, 8.914113
1480.0, 8.914785
1490.0, 8.914982
1500.0, 8.914712
1510.0, 8.913983
1520.0, 8.912802
1530.0, 8.911178
1540.0, 8.909121
1550.0, 8.906636
1560.0, 8.903733
1570.0, 8.900421
1580.0, 8.896706
1590.0, 8.892596
1600.0, 8.8881
1610.0, 8.8832245
1620.0, 8.877975
1630.0, 8.872364
1640.0, 8.866397
1650.0, 8.860081
1660.0, 8.853423
1670.0, 8.84643
1680.0, 8.83911
1690.0, 8.8314705
1700.0, 8.823518
1710.0, 8.815259
1720.0, 8.806703
1730.0, 8.7978525
1740.0, 8.788717
1750.0, 8.779304
1760.0, 8.769618
1770.0, 8.759667
1780.0, 8.749456
1790.0, 8.738996
1800.0, 8.728285
1810.0, 8.717338
1820.0, 8.706153
1830.0, 8.694742
1840.0, 8.683107
1850.0, 8.67126
1860.0, 8.659201
1870.0, 8.646936
1880.0, 8.634474
1890.0, 8.621818
1900.0, 8.608974
1910.0, 8.595948
1920.0, 8.582746
1930.0, 8.569371
1940.0, 8.555831
1950.0, 8.542128
1960.0, 8.528269
1970.0, 8.514258
1980.0, 8.500102
1990.0, 8.485805
2000.0, 8.471369
2010.0, 8.456801
2020.0, 8.442106
2030.0, 8.427287
2040.0, 8.412351
2050.0, 8.397298
2060.0, 8.382136
2070.0, 8.366869
2080.0, 8.351498
2090.0, 8.336031
2100.0, 8.320469
2110.0, 8.304817
2120.0, 8.28908
2130.0, 8.273259
2140.0, 8.25736
2150.0, 8.241386
2160.0, 8.225342
2170.0, 8.2092285
2180.0, 8.19305
2190.0, 8.176812
2200.0, 8.160516
2210.0, 8.144163
2220.0, 8.12776
2230.0, 8.111309
2240.0, 8.094811
2250.0, 8.078274
2260.0, 8.061694
2270.0, 8.045079
2280.0, 8.028429
2290.0, 8.011749
2300.0, 7.99504
2310.0, 7.9783053
2320.0, 7.9615474
2330.0, 7.9447675
2340.0, 7.9279704
2350.0, 7.9111567
2360.0, 7.89433
2370.0, 7.8774915
2380.0, 7.860643
2390.0, 7.843788
2400.0, 7.8269286
2410.0, 7.8100653
2420.0, 7.7932024
2430.0, 7.7763395
2440.0, 7.75948
2450.0, 7.742626
2460.0, 7.7257776
2470.0, 7.7089376
2480.0, 7.6921086
2490.0, 7.675291
2500.0, 7.6584883
2510.0, 7.641699
2520.0, 7.624928
2530.0, 7.6081743
2540.0, 7.5914392
2550.0, 7.5747256
2560.0, 7.558036
2570.0, 7.5413685
2580.0, 7.5247264
2590.0, 7.508111
2600.0, 7.4915233
2610.0, 7.4749646
2620.0, 7.4584346
2630.0, 7.4419365
2640.0, 7.4254704
2650.0, 7.409037
2660.0, 7.3926396
2670.0, 7.376276
2680.0, 7.3599486
2690.0, 7.3436584
2700.0, 7.3274055
2710.0, 7.311193
2720.0, 7.295019
2730.0, 7.278886
2740.0, 7.262795
2750.0, 7.246744
2760.0, 7.2307367
2770.0, 7.2147727
2780.0, 7.198852
2790.0, 7.182977
2800.0, 7.167147
2810.0, 7.1513624
2820.0, 7.1356254
2830.0, 7.119934
2840.0, 7.104292
2850.0, 7.088696
2860.0, 7.0731487
2870.0, 7.057652
2880.0, 7.042203
2890.0, 7.0268035
2900.0, 7.011455
2910.0, 6.996157
2920.0, 6.9809093
2930.0, 6.9657135
2940.0, 6.9505696
2950.0, 6.935476
2960.0, 6.9204364
2970.0, 6.905447
2980.0, 6.890511
2990.0, 6.875628
3000.0, 6.8607993
