Energy (in eV), SEEP yield of material ka2k-NASCAP at isotropic incidence
   X,       Y
0.0, 0.0
200.0, 0.39837778
400.0, 0.5671163
600.0, 0.6960415
800.0, 0.8042689
1000.0, 0.89921457
1200.0, 0.98468834
1400.0, 1.0629562
1600.0, 1.1354975
1800.0, 1.2033411
2000.0, 1.2672374
2200.0, 1.3277537
2400.0, 1.3853315
2600.0, 1.4403225
2800.0, 1.4930123
3000.0, 1.5436363
3200.0, 1.592392
3400.0, 1.6394466
3600.0, 1.6849436
3800.0, 1.7290066
4000.0, 1.7717426
4200.0, 1.8132474
4400.0, 1.8536041
4600.0, 1.8928865
4800.0, 1.9311625
5000.0, 1.9684905
5200.0, 2.0049245
5400.0, 2.0405145
5600.0, 2.0753036
5800.0, 2.109333
6000.0, 2.1426396
6200.0, 2.175258
6400.0, 2.2072186
6600.0, 2.238552
6800.0, 2.269284
7000.0, 2.2994401
7200.0, 2.3290434
7400.0, 2.3581154
7600.0, 2.3866773
7800.0, 2.414747
8000.0, 2.4423423
8200.0, 2.4694812
8400.0, 2.496178
8600.0, 2.5224485
8800.0, 2.548306
9000.0, 2.5737648
9200.0, 2.5988357
9400.0, 2.6235328
9600.0, 2.6478655
9800.0, 2.6718457
10000.0, 2.6954827
10200.0, 2.7187865
10400.0, 2.7417662
10600.0, 2.7644308
10800.0, 2.7867894
11000.0, 2.8088481
11200.0, 2.830617
11400.0, 2.852101
11600.0, 2.8733094
11800.0, 2.894248
12000.0, 2.9149222
12200.0, 2.9353402
12400.0, 2.9555066
12600.0, 2.9754274
12800.0, 2.9951081
13000.0, 3.0145547
13200.0, 3.033771
13400.0, 3.0527635
13600.0, 3.0715358
13800.0, 3.0900939
14000.0, 3.1084394
14200.0, 3.1265798
14400.0, 3.1445172
14600.0, 3.1622565
14800.0, 3.1798017
15000.0, 3.197156
15200.0, 3.2143233
15400.0, 3.2313068
15600.0, 3.2481096
15800.0, 3.2647362
16000.0, 3.281189
16200.0, 3.2974718
16400.0, 3.3135867
16600.0, 3.3295364
16800.0, 3.3453252
17000.0, 3.3609545
17200.0, 3.3764284
17400.0, 3.3917482
17600.0, 3.4069169
17800.0, 3.4219368
18000.0, 3.436811
18200.0, 3.4515412
18400.0, 3.4661293
18600.0, 3.480579
18800.0, 3.494891
19000.0, 3.5090675
19200.0, 3.523112
19400.0, 3.5370252
19600.0, 3.5508094
19800.0, 3.5644665
20000.0, 3.5779977
20200.0, 3.5914063
20400.0, 3.6046932
20600.0, 3.61786
20800.0, 3.6309087
21000.0, 3.6438415
21200.0, 3.6566596
21400.0, 3.6693633
21600.0, 3.6819563
21800.0, 3.6944387
22000.0, 3.7068126
22200.0, 3.7190793
22400.0, 3.7312403
22600.0, 3.7432966
22800.0, 3.7552502
23000.0, 3.7671027
23200.0, 3.778854
23400.0, 3.7905068
23600.0, 3.802061
23800.0, 3.8135192
24000.0, 3.824882
24200.0, 3.8361504
24400.0, 3.847326
24600.0, 3.8584101
24800.0, 3.869403
25000.0, 3.8803058
25200.0, 3.8911207
25400.0, 3.9018486
25600.0, 3.9124887
25800.0, 3.9230442
26000.0, 3.9335148
26200.0, 3.9439027
26400.0, 3.9542072
26600.0, 3.9644313
26800.0, 3.9745739
27000.0, 3.9846368
27200.0, 3.9946208
27400.0, 4.004528
27600.0, 4.014357
27800.0, 4.0241103
28000.0, 4.033788
28200.0, 4.043391
28400.0, 4.052921
28600.0, 4.062378
28800.0, 4.071762
29000.0, 4.081075
29200.0, 4.0903177
29400.0, 4.0994906
29600.0, 4.108594
29800.0, 4.1176295
30000.0, 4.126598
30200.0, 4.1354985
30400.0, 4.1443334
30600.0, 4.1531014
30800.0, 4.1618047
31000.0, 4.170444
31200.0, 4.1790204
31400.0, 4.187533
31600.0, 4.1959834
31800.0, 4.204372
32000.0, 4.2126994
32200.0, 4.220967
32400.0, 4.229174
32600.0, 4.237322
32800.0, 4.245411
33000.0, 4.2534423
33200.0, 4.2614155
33400.0, 4.2693305
33600.0, 4.2771907
33800.0, 4.2849946
34000.0, 4.292742
34200.0, 4.300435
34400.0, 4.3080735
34600.0, 4.315659
34800.0, 4.32319
35000.0, 4.3306684
35200.0, 4.338094
35400.0, 4.345468
35600.0, 4.3527904
35800.0, 4.3600616
36000.0, 4.3672824
36200.0, 4.3744526
36400.0, 4.3815737
36600.0, 4.388645
36800.0, 4.395669
37000.0, 4.4026427
37200.0, 4.40957
37400.0, 4.416449
37600.0, 4.423281
37800.0, 4.4300666
38000.0, 4.4368052
38200.0, 4.443498
38400.0, 4.450146
38600.0, 4.456749
38800.0, 4.463307
39000.0, 4.4698205
39200.0, 4.47629
39400.0, 4.482716
39600.0, 4.489099
39800.0, 4.4954386
40000.0, 4.501736
40200.0, 4.5079913
40400.0, 4.514205
40600.0, 4.5203776
40800.0, 4.5265083
41000.0, 4.5325985
41200.0, 4.538648
41400.0, 4.5446568
41600.0, 4.550627
41800.0, 4.5565577
42000.0, 4.5624495
42200.0, 4.5683017
42400.0, 4.5741158
42600.0, 4.5798907
42800.0, 4.5856295
43000.0, 4.5913296
43200.0, 4.596992
43400.0, 4.602618
43600.0, 4.6082067
43800.0, 4.6137605
44000.0, 4.619277
44200.0, 4.6247573
44400.0, 4.630203
44600.0, 4.6356125
44800.0, 4.6409874
45000.0, 4.646328
45200.0, 4.6516337
45400.0, 4.6569047
45600.0, 4.662142
45800.0, 4.667346
46000.0, 4.6725163
46200.0, 4.6776533
46400.0, 4.6827574
46600.0, 4.6878285
46800.0, 4.6928673
47000.0, 4.6978736
47200.0, 4.7028494
47400.0, 4.707792
47600.0, 4.712703
47800.0, 4.717583
48000.0, 4.722432
48200.0, 4.72725
48400.0, 4.732038
48600.0, 4.736795
48800.0, 4.7415233
49000.0, 4.7462196
49200.0, 4.750888
49400.0, 4.7555246
49600.0, 4.7601337
49800.0, 4.7647133
50000.0, 4.769264
50200.0, 4.7737865
50400.0, 4.7782803
50600.0, 4.782745
50800.0, 4.787183
51000.0, 4.791592
51200.0, 4.795974
51400.0, 4.8003283
51600.0, 4.8046556
51800.0, 4.808955
52000.0, 4.8132277
52200.0, 4.817475
52400.0, 4.821695
52600.0, 4.8258877
52800.0, 4.8300548
53000.0, 4.834197
53200.0, 4.838312
53400.0, 4.8424015
53600.0, 4.846466
53800.0, 4.8505063
54000.0, 4.85452
54200.0, 4.858509
54400.0, 4.862473
54600.0, 4.866413
54800.0, 4.8703284
55000.0, 4.87422
55200.0, 4.878087
55400.0, 4.88193
55600.0, 4.88575
55800.0, 4.8895454
56000.0, 4.8933167
56200.0, 4.8970666
56400.0, 4.900792
56600.0, 4.9044952
56800.0, 4.908174
57000.0, 4.9118314
57200.0, 4.9154663
57400.0, 4.9190784
57600.0, 4.922668
57800.0, 4.926237
58000.0, 4.9297824
58200.0, 4.9333067
58400.0, 4.9368086
58600.0, 4.94029
58800.0, 4.943749
59000.0, 4.947188
59200.0, 4.9506044
59400.0, 4.9540005
59600.0, 4.957376
59800.0, 4.9607306
60000.0, 4.964065
60200.0, 4.9673777
60400.0, 4.970671
60600.0, 4.9739437
60800.0, 4.9771976
61000.0, 4.98043
61200.0, 4.983643
61400.0, 4.986837
61600.0, 4.99001
61800.0, 4.9931645
62000.0, 4.9962997
62200.0, 4.999415
62400.0, 5.0025125
62600.0, 5.00559
62800.0, 5.0086493
63000.0, 5.0116887
63200.0, 5.014711
63400.0, 5.017713
63600.0, 5.0206976
63800.0, 5.023664
64000.0, 5.0266123
64200.0, 5.029542
64400.0, 5.0324545
64600.0, 5.035349
64800.0, 5.0382257
65000.0, 5.041085
65200.0, 5.0439262
65400.0, 5.0467505
65600.0, 5.0495577
65800.0, 5.0523467
66000.0, 5.0551195
66200.0, 5.0578747
66400.0, 5.060613
66600.0, 5.063335
66800.0, 5.0660405
67000.0, 5.0687284
67200.0, 5.0714
67400.0, 5.0740557
67600.0, 5.0766954
67800.0, 5.079319
68000.0, 5.081926
68200.0, 5.084516
68400.0, 5.0870914
68600.0, 5.0896516
68800.0, 5.092194
69000.0, 5.0947223
69200.0, 5.097235
69400.0, 5.099732
69600.0, 5.102213
69800.0, 5.10468
70000.0, 5.1071305
70200.0, 5.109567
70400.0, 5.111988
70600.0, 5.114394
70800.0, 5.1167855
71000.0, 5.1191616
71200.0, 5.121524
71400.0, 5.1238704
71600.0, 5.1262035
71800.0, 5.1285224
72000.0, 5.1308255
72200.0, 5.133116
72400.0, 5.135391
72600.0, 5.137653
72800.0, 5.1399
73000.0, 5.1421337
73200.0, 5.144354
73400.0, 5.1465592
73600.0, 5.1487517
73800.0, 5.1509304
74000.0, 5.1530957
74200.0, 5.1552467
74400.0, 5.157386
74600.0, 5.15951
74800.0, 5.161622
75000.0, 5.1637206
75200.0, 5.165807
75400.0, 5.1678786
75600.0, 5.169937
75800.0, 5.1719847
76000.0, 5.174019
76200.0, 5.17604
76400.0, 5.178048
76600.0, 5.1800437
76800.0, 5.1820273
77000.0, 5.183998
77200.0, 5.1859565
77400.0, 5.1879034
77600.0, 5.1898375
77800.0, 5.1917586
78000.0, 5.1936684
78200.0, 5.195565
78400.0, 5.197452
78600.0, 5.199325
78800.0, 5.2011867
79000.0, 5.2030377
79200.0, 5.204876
79400.0, 5.206702
79600.0, 5.2085185
79800.0, 5.210321
80000.0, 5.2121134
80200.0, 5.213895
80400.0, 5.215664
80600.0, 5.2174215
80800.0, 5.219168
81000.0, 5.2209044
81200.0, 5.222629
81400.0, 5.224343
81600.0, 5.226045
81800.0, 5.2277365
82000.0, 5.2294173
82200.0, 5.231087
82400.0, 5.2327466
82600.0, 5.2343946
82800.0, 5.236033
83000.0, 5.23766
83200.0, 5.239277
83400.0, 5.2408834
83600.0, 5.24248
83800.0, 5.244064
84000.0, 5.2456403
84200.0, 5.2472053
84400.0, 5.2487593
84600.0, 5.250304
84800.0, 5.2518396
85000.0, 5.2533636
85200.0, 5.254878
85400.0, 5.256383
85600.0, 5.2578773
85800.0, 5.2593627
86000.0, 5.260837
86200.0, 5.2623024
86400.0, 5.263758
86600.0, 5.2652054
86800.0, 5.266641
87000.0, 5.268069
87200.0, 5.2694855
87400.0, 5.2708936
87600.0, 5.272292
87800.0, 5.273681
88000.0, 5.2750616
88200.0, 5.2764325
88400.0, 5.277795
88600.0, 5.279147
88800.0, 5.28049
89000.0, 5.281825
89200.0, 5.28315
89400.0, 5.2844667
89600.0, 5.285774
89800.0, 5.2870727
90000.0, 5.288362
90200.0, 5.289644
90400.0, 5.290916
90600.0, 5.292179
90800.0, 5.2934346
91000.0, 5.2946806
91200.0, 5.2959185
91400.0, 5.2971478
91600.0, 5.298369
91800.0, 5.299581
92000.0, 5.300785
92200.0, 5.3019805
92400.0, 5.303168
92600.0, 5.3043466
92800.0, 5.3055177
93000.0, 5.30668
93200.0, 5.3078346
93400.0, 5.308981
93600.0, 5.310121
93800.0, 5.3112507
94000.0, 5.3123727
94200.0, 5.3134885
94400.0, 5.3145943
94600.0, 5.315694
94800.0, 5.3167844
95000.0, 5.3178678
95200.0, 5.3189435
95400.0, 5.32001
95600.0, 5.3210707
95800.0, 5.322123
96000.0, 5.323168
96200.0, 5.324205
96400.0, 5.325235
96600.0, 5.3262577
96800.0, 5.327272
97000.0, 5.3282795
97200.0, 5.3292794
97400.0, 5.330273
97600.0, 5.331258
97800.0, 5.332236
98000.0, 5.3332067
98200.0, 5.334172
98400.0, 5.3351274
98600.0, 5.336077
98800.0, 5.33702
99000.0, 5.3379555
99200.0, 5.338884
99400.0, 5.3398046
99600.0, 5.3407197
99800.0, 5.3416276
100000.0, 5.342528
