Energy (in eV), backscattering yield of material te2k-NASCAP at isotropic incidence
   X,       Y
0.0, 0.63867396
10.0, 0.35205287
20.0, 0.20683554
30.0, 0.12950352
40.0, 0.08606911
50.0, 0.06031428
60.0, 0.095280185
70.0, 0.118127644
80.0, 0.13551481
90.0, 0.14950544
100.0, 0.1611625
110.0, 0.17112383
120.0, 0.17980199
130.0, 0.18747745
140.0, 0.1943488
150.0, 0.20056112
160.0, 0.20622373
170.0, 0.2114208
180.0, 0.21621864
190.0, 0.22067031
200.0, 0.22481908
210.0, 0.22870052
220.0, 0.23234442
230.0, 0.23577574
240.0, 0.23901588
250.0, 0.24208312
260.0, 0.24499318
270.0, 0.24775992
280.0, 0.2503953
290.0, 0.25290993
300.0, 0.2553132
310.0, 0.2576134
320.0, 0.25981805
330.0, 0.26193377
340.0, 0.2639666
350.0, 0.2659219
360.0, 0.26780462
370.0, 0.26961926
380.0, 0.27136984
390.0, 0.27306008
400.0, 0.27469343
410.0, 0.27627298
420.0, 0.27780166
430.0, 0.27928212
440.0, 0.2807168
450.0, 0.28210795
460.0, 0.28345776
470.0, 0.28476813
480.0, 0.28604096
490.0, 0.2872779
500.0, 0.28848058
510.0, 0.28965047
520.0, 0.290789
530.0, 0.29189745
540.0, 0.29297706
550.0, 0.29402906
560.0, 0.29505444
570.0, 0.29605427
580.0, 0.29702955
590.0, 0.29798117
600.0, 0.29891002
610.0, 0.29981694
620.0, 0.30070266
630.0, 0.3015679
640.0, 0.3024135
650.0, 0.30324
660.0, 0.30404803
670.0, 0.3048383
680.0, 0.3056113
690.0, 0.3063676
700.0, 0.30710778
710.0, 0.3078322
720.0, 0.3085415
730.0, 0.30923605
740.0, 0.30991635
750.0, 0.31058267
760.0, 0.31123558
770.0, 0.31187537
780.0, 0.31250247
790.0, 0.3131172
800.0, 0.3137199
810.0, 0.3143109
820.0, 0.3148905
830.0, 0.315459
840.0, 0.31601673
850.0, 0.31656393
860.0, 0.3171009
870.0, 0.31762785
880.0, 0.31814507
890.0, 0.31865278
900.0, 0.31915128
910.0, 0.31964067
920.0, 0.3201213
930.0, 0.32059327
940.0, 0.3210568
950.0, 0.32151216
960.0, 0.32195947
970.0, 0.32239896
980.0, 0.32283077
990.0, 0.32325503
1000.0, 0.32367203
1010.0, 0.3234865
1020.0, 0.32330132
1030.0, 0.32311645
1040.0, 0.32293186
1050.0, 0.3227476
1060.0, 0.32256365
1070.0, 0.32237998
1080.0, 0.3221966
1090.0, 0.32201353
1100.0, 0.3218308
1110.0, 0.32164836
1120.0, 0.3214662
1130.0, 0.32128438
1140.0, 0.32110283
1150.0, 0.3209216
1160.0, 0.32074067
1170.0, 0.32056004
1180.0, 0.3203797
1190.0, 0.32019967
1200.0, 0.32001993
1210.0, 0.31984052
1220.0, 0.31966138
1230.0, 0.31948254
1240.0, 0.31930396
1250.0, 0.31912574
1260.0, 0.3189478
1270.0, 0.31877014
1280.0, 0.31859276
1290.0, 0.31841573
1300.0, 0.31823894
1310.0, 0.31806248
1320.0, 0.31788632
1330.0, 0.31771043
1340.0, 0.31753486
1350.0, 0.31735954
1360.0, 0.31718457
1370.0, 0.31700984
1380.0, 0.3168354
1390.0, 0.31666127
1400.0, 0.31648743
1410.0, 0.3163139
1420.0, 0.31614062
1430.0, 0.31596768
1440.0, 0.31579497
1450.0, 0.31562257
1460.0, 0.3154505
1470.0, 0.31527868
1480.0, 0.31510714
1490.0, 0.3149359
1500.0, 0.31476492
1510.0, 0.31459427
1520.0, 0.3144239
1530.0, 0.31425378
1540.0, 0.31408396
1550.0, 0.31391442
1560.0, 0.31374517
1570.0, 0.31357622
1580.0, 0.3134075
1590.0, 0.31323913
1600.0, 0.31307098
1610.0, 0.31290317
1620.0, 0.31273562
1630.0, 0.31256834
1640.0, 0.31240132
1650.0, 0.3122346
1660.0, 0.31206816
1670.0, 0.31190202
1680.0, 0.31173614
1690.0, 0.31157055
1700.0, 0.31140524
1710.0, 0.3112402
1720.0, 0.31107542
1730.0, 0.3109109
1740.0, 0.31074673
1750.0, 0.3105828
1760.0, 0.31041908
1770.0, 0.31025568
1780.0, 0.31009257
1790.0, 0.30992973
1800.0, 0.3097672
1810.0, 0.30960488
1820.0, 0.30944285
1830.0, 0.3092811
1840.0, 0.30911964
1850.0, 0.30895844
1860.0, 0.3087975
1870.0, 0.30863684
1880.0, 0.30847648
1890.0, 0.3083163
1900.0, 0.30815646
1910.0, 0.30799687
1920.0, 0.30783755
1930.0, 0.30767852
1940.0, 0.3075197
1950.0, 0.30736122
1960.0, 0.30720297
1970.0, 0.307045
1980.0, 0.30688727
1990.0, 0.30672982
2000.0, 0.30657265
2010.0, 0.30641574
2020.0, 0.30625907
2030.0, 0.30610266
2040.0, 0.30594656
2050.0, 0.30579072
2060.0, 0.30563512
2070.0, 0.3054798
2080.0, 0.3053247
2090.0, 0.30516988
2100.0, 0.30501536
2110.0, 0.30486104
2120.0, 0.30470702
2130.0, 0.30455324
2140.0, 0.30439973
2150.0, 0.3042465
2160.0, 0.30409348
2170.0, 0.30394077
2180.0, 0.3037883
2190.0, 0.30363607
2200.0, 0.3034841
2210.0, 0.30333242
2220.0, 0.303181
2230.0, 0.30302978
2240.0, 0.30287886
2250.0, 0.30272818
2260.0, 0.30257776
2270.0, 0.3024276
2280.0, 0.30227768
2290.0, 0.30212802
2300.0, 0.30197862
2310.0, 0.3018295
2320.0, 0.30168056
2330.0, 0.3015319
2340.0, 0.30138353
2350.0, 0.30123538
2360.0, 0.30108747
2370.0, 0.30093986
2380.0, 0.30079246
2390.0, 0.30064532
2400.0, 0.30049843
2410.0, 0.30035177
2420.0, 0.3002054
2430.0, 0.30005926
2440.0, 0.29991338
2450.0, 0.29976773
2460.0, 0.29962233
2470.0, 0.2994772
2480.0, 0.2993323
2490.0, 0.2991876
2500.0, 0.2990432
2510.0, 0.29889902
2520.0, 0.2987551
2530.0, 0.29861146
2540.0, 0.29846802
2550.0, 0.29832482
2560.0, 0.29818186
2570.0, 0.29803917
2580.0, 0.2978967
2590.0, 0.2977545
2600.0, 0.29761252
2610.0, 0.2974708
2620.0, 0.2973293
2630.0, 0.29718804
2640.0, 0.29704705
2650.0, 0.29690626
2660.0, 0.29676574
2670.0, 0.29662547
2680.0, 0.2964854
2690.0, 0.2963456
2700.0, 0.29620606
2710.0, 0.2960667
2720.0, 0.2959276
2730.0, 0.29578874
2740.0, 0.2956501
2750.0, 0.29551175
2760.0, 0.2953736
2770.0, 0.2952357
2780.0, 0.29509798
2790.0, 0.29496056
2800.0, 0.29482335
2810.0, 0.29468638
2820.0, 0.29454964
2830.0, 0.29441312
2840.0, 0.2942769
2850.0, 0.29414085
2860.0, 0.29400504
2870.0, 0.29386944
2880.0, 0.29373413
2890.0, 0.293599
2900.0, 0.29346415
2910.0, 0.29332948
2920.0, 0.2931951
2930.0, 0.2930609
2940.0, 0.2929269
2950.0, 0.2927932
2960.0, 0.2926597
2970.0, 0.29252645
2980.0, 0.29239342
2990.0, 0.29226062
3000.0, 0.29212803
3010.0, 0.29199567
3020.0, 0.29186353
3030.0, 0.29173163
3040.0, 0.29159996
3050.0, 0.2914685
3060.0, 0.29133728
3070.0, 0.2912063
3080.0, 0.29107553
3090.0, 0.29094496
3100.0, 0.29081464
3110.0, 0.29068455
3120.0, 0.29055467
3130.0, 0.290425
3140.0, 0.2902956
3150.0, 0.29016635
3160.0, 0.2900374
3170.0, 0.28990862
3180.0, 0.2897801
3190.0, 0.28965175
3200.0, 0.28952366
3210.0, 0.28939578
3220.0, 0.28926814
3230.0, 0.28914067
3240.0, 0.28901345
3250.0, 0.28888646
3260.0, 0.28875968
3270.0, 0.2886331
3280.0, 0.28850678
3290.0, 0.28838062
3300.0, 0.2882547
3310.0, 0.28812903
3320.0, 0.28800353
3330.0, 0.2878783
3340.0, 0.28775325
3350.0, 0.2876284
3360.0, 0.2875038
3370.0, 0.2873794
3380.0, 0.28725523
3390.0, 0.28713125
3400.0, 0.2870075
3410.0, 0.28688395
3420.0, 0.28676063
3430.0, 0.2866375
3440.0, 0.28651464
3450.0, 0.2863919
3460.0, 0.28626946
3470.0, 0.2861472
3480.0, 0.28602514
3490.0, 0.2859033
3500.0, 0.28578165
3510.0, 0.28566024
3520.0, 0.285539
3530.0, 0.28541803
3540.0, 0.28529724
3550.0, 0.28517666
3560.0, 0.2850563
3570.0, 0.28493613
3580.0, 0.28481615
3590.0, 0.2846964
3600.0, 0.28457683
3610.0, 0.28445753
3620.0, 0.28433838
3630.0, 0.28421947
3640.0, 0.28410074
3650.0, 0.28398225
3660.0, 0.28386396
3670.0, 0.28374586
3680.0, 0.28362796
3690.0, 0.28351024
3700.0, 0.28339276
3710.0, 0.28327549
3720.0, 0.28315842
3730.0, 0.28304154
3740.0, 0.28292486
3750.0, 0.2828084
3760.0, 0.28269213
3770.0, 0.28257605
3780.0, 0.28246018
3790.0, 0.28234455
3800.0, 0.28222907
3810.0, 0.28211382
3820.0, 0.28199875
3830.0, 0.2818839
3840.0, 0.28176925
3850.0, 0.28165478
3860.0, 0.2815405
3870.0, 0.28142646
3880.0, 0.2813126
3890.0, 0.28119895
3900.0, 0.2810855
3910.0, 0.28097218
3920.0, 0.28085914
3930.0, 0.28074625
3940.0, 0.28063357
3950.0, 0.2805211
3960.0, 0.2804088
3970.0, 0.2802967
3980.0, 0.28018484
3990.0, 0.28007314
4000.0, 0.27996162
4010.0, 0.2798503
4020.0, 0.2797392
4030.0, 0.27962828
4040.0, 0.27951753
4050.0, 0.27940702
4060.0, 0.27929667
4070.0, 0.27918652
4080.0, 0.27907658
4090.0, 0.27896678
4100.0, 0.27885723
4110.0, 0.27874786
4120.0, 0.27863866
4130.0, 0.27852967
4140.0, 0.27842084
4150.0, 0.27831224
4160.0, 0.27820382
4170.0, 0.27809557
4180.0, 0.2779875
4190.0, 0.27787966
4200.0, 0.27777198
4210.0, 0.27766448
4220.0, 0.2775572
4230.0, 0.2774501
4240.0, 0.27734318
4250.0, 0.27723646
4260.0, 0.27712992
4270.0, 0.27702352
4280.0, 0.2769174
4290.0, 0.2768114
4300.0, 0.2767056
4310.0, 0.2766
4320.0, 0.27649453
4330.0, 0.2763893
4340.0, 0.27628425
4350.0, 0.27617937
4360.0, 0.27607468
4370.0, 0.27597016
4380.0, 0.27586585
4390.0, 0.27576172
4400.0, 0.27565774
4410.0, 0.27555397
4420.0, 0.27545038
4430.0, 0.275347
4440.0, 0.27524373
4450.0, 0.2751407
4460.0, 0.27503783
4470.0, 0.27493516
4480.0, 0.27483264
4490.0, 0.27473032
4500.0, 0.27462816
4510.0, 0.27452618
4520.0, 0.27442443
4530.0, 0.2743228
4540.0, 0.2742214
4550.0, 0.27412015
4560.0, 0.27401906
4570.0, 0.27391818
4580.0, 0.27381745
4590.0, 0.27371693
4600.0, 0.27361655
4610.0, 0.2735164
4620.0, 0.27341637
4630.0, 0.27331653
4640.0, 0.2732169
4650.0, 0.2731174
4660.0, 0.2730181
4670.0, 0.27291897
4680.0, 0.27282003
4690.0, 0.27272123
4700.0, 0.27262262
4710.0, 0.2725242
4720.0, 0.27242595
4730.0, 0.27232787
4740.0, 0.27222994
4750.0, 0.27213222
4760.0, 0.27203465
4770.0, 0.27193725
4780.0, 0.27184004
4790.0, 0.271743
4800.0, 0.2716461
4810.0, 0.2715494
4820.0, 0.27145287
4830.0, 0.2713565
4840.0, 0.2712603
4850.0, 0.27116427
4860.0, 0.27106842
4870.0, 0.27097276
4880.0, 0.27087724
4890.0, 0.2707819
4900.0, 0.27068672
4910.0, 0.2705917
4920.0, 0.27049685
4930.0, 0.2704022
4940.0, 0.2703077
4950.0, 0.27021337
4960.0, 0.27011916
4970.0, 0.2700252
4980.0, 0.26993135
4990.0, 0.26983768
5000.0, 0.26974416
5010.0, 0.26965085
5020.0, 0.26955765
5030.0, 0.26946464
5040.0, 0.2693718
5050.0, 0.26927912
5060.0, 0.26918662
5070.0, 0.26909426
5080.0, 0.26900208
5090.0, 0.26891005
5100.0, 0.2688182
5110.0, 0.26872653
5120.0, 0.26863497
5130.0, 0.2685436
5140.0, 0.2684524
5150.0, 0.26836136
5160.0, 0.2682705
5170.0, 0.26817977
5180.0, 0.2680892
5190.0, 0.26799878
5200.0, 0.26790857
5210.0, 0.26781848
5220.0, 0.26772857
5230.0, 0.2676388
5240.0, 0.26754925
5250.0, 0.26745978
5260.0, 0.2673705
5270.0, 0.26728138
5280.0, 0.26719242
5290.0, 0.2671036
5300.0, 0.26701498
5310.0, 0.2669265
5320.0, 0.26683816
5330.0, 0.26675
5340.0, 0.26666197
5350.0, 0.2665741
5360.0, 0.26648644
5370.0, 0.26639888
5380.0, 0.2663115
5390.0, 0.26622427
5400.0, 0.26613718
5410.0, 0.26605028
5420.0, 0.2659635
5430.0, 0.2658769
5440.0, 0.26579043
5450.0, 0.26570415
5460.0, 0.26561797
5470.0, 0.265532
5480.0, 0.26544616
5490.0, 0.26536047
5500.0, 0.26527494
5510.0, 0.26518956
5520.0, 0.26510435
5530.0, 0.26501927
5540.0, 0.26493433
5550.0, 0.26484954
5560.0, 0.26476493
5570.0, 0.26468045
5580.0, 0.26459613
5590.0, 0.264512
5600.0, 0.26442796
5610.0, 0.2643441
5620.0, 0.2642604
5630.0, 0.26417682
5640.0, 0.2640934
5650.0, 0.26401013
5660.0, 0.263927
5670.0, 0.26384407
5680.0, 0.26376122
5690.0, 0.26367858
5700.0, 0.26359606
5710.0, 0.26351365
5720.0, 0.26343146
5730.0, 0.26334938
5740.0, 0.26326743
5750.0, 0.26318565
5760.0, 0.263104
5770.0, 0.26302254
5780.0, 0.26294118
5790.0, 0.26285997
5800.0, 0.26277894
5810.0, 0.26269802
5820.0, 0.26261723
5830.0, 0.26253664
5840.0, 0.26245615
5850.0, 0.26237583
5860.0, 0.26229563
5870.0, 0.26221558
5880.0, 0.2621357
5890.0, 0.26205596
5900.0, 0.26197636
5910.0, 0.26189688
5920.0, 0.26181754
5930.0, 0.2617384
5940.0, 0.26165935
5950.0, 0.26158044
5960.0, 0.26150167
5970.0, 0.26142308
5980.0, 0.2613446
5990.0, 0.2612663
6000.0, 0.2611881
6010.0, 0.26111004
6020.0, 0.26103213
6030.0, 0.26095438
6040.0, 0.26087674
6050.0, 0.26079926
6060.0, 0.26072192
6070.0, 0.2606447
6080.0, 0.26056764
6090.0, 0.26049072
6100.0, 0.26041391
6110.0, 0.26033726
6120.0, 0.26026073
6130.0, 0.26018438
6140.0, 0.26010814
6150.0, 0.26003206
6160.0, 0.25995606
6170.0, 0.25988024
6180.0, 0.25980455
6190.0, 0.259729
6200.0, 0.2596536
6210.0, 0.25957832
6220.0, 0.25950316
6230.0, 0.25942814
6240.0, 0.25935328
6250.0, 0.25927857
6260.0, 0.25920394
6270.0, 0.2591295
6280.0, 0.25905514
6290.0, 0.25898096
6300.0, 0.2589069
6310.0, 0.25883296
6320.0, 0.25875914
6330.0, 0.2586855
6340.0, 0.25861198
6350.0, 0.25853857
6360.0, 0.25846532
6370.0, 0.25839218
6380.0, 0.25831917
6390.0, 0.2582463
6400.0, 0.25817358
6410.0, 0.258101
6420.0, 0.2580285
6430.0, 0.25795618
6440.0, 0.25788397
6450.0, 0.25781187
6460.0, 0.25773993
6470.0, 0.25766814
6480.0, 0.25759643
6490.0, 0.25752488
6500.0, 0.25745347
6510.0, 0.25738215
6520.0, 0.257311
6530.0, 0.25723997
6540.0, 0.25716904
6550.0, 0.25709826
6560.0, 0.25702763
6570.0, 0.25695708
6580.0, 0.2568867
6590.0, 0.25681642
6600.0, 0.25674626
6610.0, 0.25667626
6620.0, 0.2566064
6630.0, 0.25653663
6640.0, 0.256467
6650.0, 0.2563975
6660.0, 0.2563281
6670.0, 0.25625885
6680.0, 0.25618973
6690.0, 0.25612074
6700.0, 0.25605187
6710.0, 0.2559831
6720.0, 0.25591448
6730.0, 0.255846
6740.0, 0.25577763
6750.0, 0.25570935
6760.0, 0.25564122
6770.0, 0.2555732
6780.0, 0.25550535
6790.0, 0.2554376
6800.0, 0.25536996
6810.0, 0.25530243
6820.0, 0.25523508
6830.0, 0.2551678
6840.0, 0.25510067
6850.0, 0.25503364
6860.0, 0.25496674
6870.0, 0.25489995
6880.0, 0.2548333
6890.0, 0.2547668
6900.0, 0.25470036
6910.0, 0.25463408
6920.0, 0.25456792
6930.0, 0.25450188
6940.0, 0.25443596
6950.0, 0.25437015
6960.0, 0.25430447
6970.0, 0.25423887
6980.0, 0.25417346
6990.0, 0.25410813
7000.0, 0.25404292
7010.0, 0.25397784
7020.0, 0.25391287
7030.0, 0.25384802
7040.0, 0.2537833
7050.0, 0.25371867
7060.0, 0.25365415
7070.0, 0.2535898
7080.0, 0.25352553
7090.0, 0.2534614
7100.0, 0.25339735
7110.0, 0.25333348
7120.0, 0.25326967
7130.0, 0.25320598
7140.0, 0.25314245
7150.0, 0.253079
7160.0, 0.25301567
7170.0, 0.25295246
7180.0, 0.25288936
7190.0, 0.2528264
7200.0, 0.2527635
7210.0, 0.25270078
7220.0, 0.25263816
7230.0, 0.2525756
7240.0, 0.25251323
7250.0, 0.25245094
7260.0, 0.25238878
7270.0, 0.2523267
7280.0, 0.25226477
7290.0, 0.2522029
7300.0, 0.25214118
7310.0, 0.2520796
7320.0, 0.2520181
7330.0, 0.2519567
7340.0, 0.25189546
7350.0, 0.25183427
7360.0, 0.25177324
7370.0, 0.25171232
7380.0, 0.2516515
7390.0, 0.2515908
7400.0, 0.25153017
7410.0, 0.2514697
7420.0, 0.25140932
7430.0, 0.25134906
7440.0, 0.25128892
7450.0, 0.25122887
7460.0, 0.25116894
7470.0, 0.25110912
7480.0, 0.2510494
7490.0, 0.2509898
7500.0, 0.2509303
7510.0, 0.25087094
7520.0, 0.25081167
7530.0, 0.25075248
7540.0, 0.25069344
7550.0, 0.2506345
7560.0, 0.25057563
7570.0, 0.25051692
7580.0, 0.2504583
7590.0, 0.2503998
7600.0, 0.2503414
7610.0, 0.2502831
7620.0, 0.25022486
7630.0, 0.2501668
7640.0, 0.2501088
7650.0, 0.25005096
7660.0, 0.24999318
7670.0, 0.24993552
7680.0, 0.24987799
7690.0, 0.24982053
7700.0, 0.24976318
7710.0, 0.24970596
7720.0, 0.24964882
7730.0, 0.24959181
7740.0, 0.24953488
7750.0, 0.24947807
7760.0, 0.24942137
7770.0, 0.24936476
7780.0, 0.24930824
7790.0, 0.24925189
7800.0, 0.24919556
7810.0, 0.2491394
7820.0, 0.24908331
7830.0, 0.24902733
7840.0, 0.24897143
7850.0, 0.24891567
7860.0, 0.24886002
7870.0, 0.24880445
7880.0, 0.24874897
7890.0, 0.2486936
7900.0, 0.24863835
7910.0, 0.2485832
7920.0, 0.24852814
7930.0, 0.2484732
7940.0, 0.24841833
7950.0, 0.24836358
7960.0, 0.24830891
7970.0, 0.24825437
7980.0, 0.24819992
7990.0, 0.2481456
8000.0, 0.24809134
8010.0, 0.2480372
8020.0, 0.24798314
8030.0, 0.2479292
8040.0, 0.24787536
8050.0, 0.2478216
8060.0, 0.24776797
8070.0, 0.24771442
8080.0, 0.24766098
8090.0, 0.24760763
8100.0, 0.24755436
8110.0, 0.24750122
8120.0, 0.24744818
8130.0, 0.2473952
8140.0, 0.24734235
8150.0, 0.24728958
8160.0, 0.24723694
8170.0, 0.24718435
8180.0, 0.2471319
8190.0, 0.24707952
8200.0, 0.24702726
8210.0, 0.24697508
8220.0, 0.246923
8230.0, 0.24687102
8240.0, 0.24681914
8250.0, 0.24676734
8260.0, 0.24671566
8270.0, 0.24666405
8280.0, 0.24661255
8290.0, 0.24656114
8300.0, 0.24650985
8310.0, 0.24645862
8320.0, 0.2464075
8330.0, 0.24635649
8340.0, 0.24630556
8350.0, 0.24625471
8360.0, 0.24620397
8370.0, 0.24615334
8380.0, 0.24610278
8390.0, 0.24605232
8400.0, 0.24600196
8410.0, 0.24595168
8420.0, 0.24590151
8430.0, 0.24585143
8440.0, 0.24580143
8450.0, 0.24575154
8460.0, 0.24570173
8470.0, 0.24565202
8480.0, 0.2456024
8490.0, 0.24555287
8500.0, 0.24550343
8510.0, 0.24545409
8520.0, 0.24540484
8530.0, 0.24535567
8540.0, 0.2453066
8550.0, 0.24525763
8560.0, 0.24520874
8570.0, 0.24515994
8580.0, 0.24511126
8590.0, 0.24506263
8600.0, 0.24501412
8610.0, 0.24496567
8620.0, 0.24491732
8630.0, 0.24486908
8640.0, 0.24482092
8650.0, 0.24477285
8660.0, 0.24472488
8670.0, 0.24467698
8680.0, 0.24462916
8690.0, 0.24458145
8700.0, 0.24453384
8710.0, 0.24448629
8720.0, 0.24443883
8730.0, 0.24439147
8740.0, 0.2443442
8750.0, 0.24429703
8760.0, 0.24424993
8770.0, 0.24420293
8780.0, 0.24415602
8790.0, 0.24410918
8800.0, 0.24406244
8810.0, 0.24401577
8820.0, 0.24396922
8830.0, 0.24392271
8840.0, 0.24387634
8850.0, 0.24383003
8860.0, 0.2437838
8870.0, 0.24373767
8880.0, 0.2436916
8890.0, 0.24364565
8900.0, 0.24359977
8910.0, 0.24355398
8920.0, 0.24350828
8930.0, 0.24346265
8940.0, 0.24341711
8950.0, 0.24337165
8960.0, 0.24332629
8970.0, 0.24328102
8980.0, 0.24323581
8990.0, 0.24319069
9000.0, 0.24314569
9010.0, 0.24310075
9020.0, 0.24305588
9030.0, 0.24301112
9040.0, 0.24296641
9050.0, 0.2429218
9060.0, 0.24287729
9070.0, 0.24283284
9080.0, 0.2427885
9090.0, 0.2427442
9100.0, 0.24270001
9110.0, 0.2426559
9120.0, 0.24261189
9130.0, 0.24256793
9140.0, 0.24252407
9150.0, 0.24248031
9160.0, 0.24243662
9170.0, 0.24239299
9180.0, 0.24234948
9190.0, 0.24230601
9200.0, 0.24226265
9210.0, 0.24221934
9220.0, 0.24217615
9230.0, 0.24213304
9240.0, 0.24208997
9250.0, 0.24204701
9260.0, 0.24200413
9270.0, 0.24196132
9280.0, 0.24191861
9290.0, 0.24187596
9300.0, 0.24183339
9310.0, 0.24179092
9320.0, 0.2417485
9330.0, 0.24170618
9340.0, 0.24166395
9350.0, 0.24162178
9360.0, 0.24157968
9370.0, 0.24153769
9380.0, 0.24149576
9390.0, 0.24145392
9400.0, 0.24141215
9410.0, 0.24137044
9420.0, 0.24132884
9430.0, 0.2412873
9440.0, 0.24124584
9450.0, 0.24120447
9460.0, 0.24116316
9470.0, 0.24112193
9480.0, 0.2410808
9490.0, 0.24103972
9500.0, 0.24099874
9510.0, 0.24095783
9520.0, 0.24091698
9530.0, 0.24087623
9540.0, 0.24083555
9550.0, 0.24079494
9560.0, 0.24075441
9570.0, 0.24071395
9580.0, 0.24067359
9590.0, 0.24063326
9600.0, 0.24059306
9610.0, 0.24055289
9620.0, 0.24051282
9630.0, 0.24047282
9640.0, 0.24043289
9650.0, 0.24039306
9660.0, 0.24035329
9670.0, 0.24031357
9680.0, 0.24027397
9690.0, 0.2402344
9700.0, 0.24019493
9710.0, 0.24015555
9720.0, 0.2401162
9730.0, 0.24007694
9740.0, 0.24003777
9750.0, 0.23999867
9760.0, 0.23995966
9770.0, 0.23992069
9780.0, 0.23988181
9790.0, 0.239843
9800.0, 0.23980425
9810.0, 0.23976558
9820.0, 0.23972699
9830.0, 0.2396885
9840.0, 0.23965004
9850.0, 0.23961166
9860.0, 0.23957337
9870.0, 0.23953514
9880.0, 0.23949699
9890.0, 0.23945892
9900.0, 0.23942089
9910.0, 0.23938295
9920.0, 0.23934509
9930.0, 0.23930728
9940.0, 0.23926957
9950.0, 0.23923191
9960.0, 0.23919432
9970.0, 0.23915681
9980.0, 0.23911937
9990.0, 0.23908202
10000.0, 0.2390447
10010.0, 0.23900749
10020.0, 0.23897032
10030.0, 0.23893322
10040.0, 0.2388962
10050.0, 0.23885928
10060.0, 0.2388224
10070.0, 0.23878558
10080.0, 0.23874883
10090.0, 0.23871219
10100.0, 0.23867556
10110.0, 0.23863904
10120.0, 0.23860258
10130.0, 0.23856619
10140.0, 0.23852988
10150.0, 0.23849362
10160.0, 0.23845743
10170.0, 0.2384213
10180.0, 0.23838526
10190.0, 0.23834926
10200.0, 0.23831336
10210.0, 0.23827752
10220.0, 0.23824175
10230.0, 0.23820604
10240.0, 0.2381704
10250.0, 0.23813482
10260.0, 0.2380993
10270.0, 0.23806389
10280.0, 0.23802851
10290.0, 0.23799321
10300.0, 0.23795797
10310.0, 0.23792279
10320.0, 0.23788768
10330.0, 0.23785265
10340.0, 0.23781767
10350.0, 0.23778276
10360.0, 0.23774795
10370.0, 0.23771317
10380.0, 0.23767845
10390.0, 0.23764382
10400.0, 0.23760924
10410.0, 0.23757473
10420.0, 0.23754029
10430.0, 0.23750591
10440.0, 0.2374716
10450.0, 0.23743735
10460.0, 0.23740315
10470.0, 0.23736905
10480.0, 0.23733498
10490.0, 0.23730099
10500.0, 0.23726706
10510.0, 0.23723322
10520.0, 0.23719943
10530.0, 0.23716567
10540.0, 0.23713201
10550.0, 0.23709843
10560.0, 0.23706488
10570.0, 0.23703142
10580.0, 0.23699798
10590.0, 0.23696463
10600.0, 0.23693137
10610.0, 0.23689814
10620.0, 0.23686497
10630.0, 0.23683187
