Energy (in eV), SEEE yield of material te2k-NASCAP at incidence 0.0 degree
   X,       Y
0.0, 0.0
10.0, 0.21284692
20.0, 0.41750535
30.0, 0.6154943
40.0, 0.8067153
50.0, 0.9908316
60.0, 1.1674634
70.0, 1.336251
80.0, 1.4968791
90.0, 1.6490905
100.0, 1.7926877
110.0, 1.9275352
120.0, 2.0535605
130.0, 2.1707487
140.0, 2.279141
150.0, 2.3788314
160.0, 2.4699607
170.0, 2.5527127
180.0, 2.6273108
190.0, 2.6940114
200.0, 2.7530997
210.0, 2.804886
220.0, 2.8496993
230.0, 2.887885
240.0, 2.9197981
250.0, 2.9458032
260.0, 2.9662664
270.0, 2.9815555
280.0, 2.9920359
290.0, 2.9980667
300.0, 3.0000002
310.0, 2.998179
320.0, 2.9929342
330.0, 2.9845843
340.0, 2.9734335
350.0, 2.9597716
360.0, 2.9438727
370.0, 2.925995
380.0, 2.9063804
390.0, 2.885255
400.0, 2.8628283
410.0, 2.8392947
420.0, 2.8148324
430.0, 2.7896054
440.0, 2.7637625
450.0, 2.7374394
460.0, 2.7107587
470.0, 2.683831
480.0, 2.6567538
490.0, 2.629615
500.0, 2.6024926
510.0, 2.5754545
520.0, 2.54856
530.0, 2.5218613
540.0, 2.4954019
550.0, 2.4692206
560.0, 2.4433494
570.0, 2.4178138
580.0, 2.3926363
590.0, 2.3678336
600.0, 2.3434203
610.0, 2.3194063
620.0, 2.2957985
630.0, 2.2726018
640.0, 2.2498186
650.0, 2.22745
660.0, 2.205494
670.0, 2.1839483
680.0, 2.162809
690.0, 2.1420717
700.0, 2.12173
710.0, 2.1017783
720.0, 2.082209
730.0, 2.063016
740.0, 2.0441906
750.0, 2.0257256
760.0, 2.0076127
770.0, 1.9898438
780.0, 1.9724116
790.0, 1.9553065
800.0, 1.9385216
810.0, 1.9220489
820.0, 1.9058801
830.0, 1.8900079
840.0, 1.8744245
850.0, 1.8591222
860.0, 1.8440948
870.0, 1.8293345
880.0, 1.814834
890.0, 1.8005875
900.0, 1.7865881
910.0, 1.7728295
920.0, 1.7593057
930.0, 1.7460104
940.0, 1.7329386
950.0, 1.7200838
960.0, 1.707441
970.0, 1.6950049
980.0, 1.6827706
990.0, 1.6707329
1000.0, 1.6588871
1010.0, 1.6472285
1020.0, 1.6357528
1030.0, 1.6244556
1040.0, 1.6133329
1050.0, 1.60238
1060.0, 1.5915934
1070.0, 1.580969
1080.0, 1.5705034
1090.0, 1.5601926
1100.0, 1.5500337
1110.0, 1.5400229
1120.0, 1.5301566
1130.0, 1.5204319
1140.0, 1.510846
1150.0, 1.5013956
1160.0, 1.4920777
1170.0, 1.4828895
1180.0, 1.4738283
1190.0, 1.4648913
1200.0, 1.4560761
1210.0, 1.4473801
1220.0, 1.4388006
1230.0, 1.4303354
1240.0, 1.421982
1250.0, 1.4137386
1260.0, 1.4056025
1270.0, 1.3975717
1280.0, 1.3896441
1290.0, 1.3818179
1300.0, 1.3740906
1310.0, 1.3664608
1320.0, 1.3589262
1330.0, 1.3514851
1340.0, 1.3441359
1350.0, 1.336877
1360.0, 1.329706
1370.0, 1.322622
1380.0, 1.3156229
1390.0, 1.3087075
1400.0, 1.3018738
1410.0, 1.295121
1420.0, 1.2884467
1430.0, 1.2818502
1440.0, 1.2753301
1450.0, 1.2688847
1460.0, 1.2625127
1470.0, 1.2562132
1480.0, 1.2499845
1490.0, 1.2438257
1500.0, 1.2377354
1510.0, 1.2317123
1520.0, 1.2257556
1530.0, 1.219864
1540.0, 1.2140363
1550.0, 1.2082716
1560.0, 1.2025689
1570.0, 1.1969268
1580.0, 1.1913447
1590.0, 1.1858215
1600.0, 1.1803561
1610.0, 1.174948
1620.0, 1.1695957
1630.0, 1.1642987
1640.0, 1.1590558
1650.0, 1.1538665
1660.0, 1.1487298
1670.0, 1.1436448
1680.0, 1.1386107
1690.0, 1.1336268
1700.0, 1.1286924
1710.0, 1.1238067
1720.0, 1.1189687
1730.0, 1.1141781
1740.0, 1.1094339
1750.0, 1.1047353
1760.0, 1.1000819
1770.0, 1.095473
1780.0, 1.0909079
1790.0, 1.086386
1800.0, 1.0819064
1810.0, 1.0774688
1820.0, 1.0730722
1830.0, 1.0687166
1840.0, 1.0644009
1850.0, 1.0601248
1860.0, 1.0558877
1870.0, 1.051689
1880.0, 1.0475281
1890.0, 1.0434047
1900.0, 1.0393181
1910.0, 1.0352678
1920.0, 1.0312533
1930.0, 1.0272743
1940.0, 1.0233299
1950.0, 1.01942
1960.0, 1.0155439
1970.0, 1.0117013
1980.0, 1.0078919
1990.0, 1.004115
2000.0, 1.0003701
2010.0, 0.99665713
2020.0, 0.99297523
2030.0, 0.9893244
2040.0, 0.985704
2050.0, 0.9821136
2060.0, 0.9785531
2070.0, 0.9750218
2080.0, 0.9715195
2090.0, 0.9680458
2100.0, 0.9646003
2110.0, 0.9611827
2120.0, 0.95779264
2130.0, 0.9544296
2140.0, 0.9510936
2150.0, 0.94778407
2160.0, 0.9445008
2170.0, 0.9412432
2180.0, 0.9380112
2190.0, 0.93480444
2200.0, 0.9316226
2210.0, 0.92846555
2220.0, 0.9253327
2230.0, 0.9222239
2240.0, 0.9191389
2250.0, 0.9160774
2260.0, 0.9130389
2270.0, 0.91002357
2280.0, 0.9070308
2290.0, 0.9040605
2300.0, 0.9011122
2310.0, 0.89818585
2320.0, 0.8952811
2330.0, 0.89239764
2340.0, 0.88953555
2350.0, 0.88669425
2360.0, 0.8838735
2370.0, 0.88107336
2380.0, 0.8782932
2390.0, 0.87553304
2400.0, 0.8727928
2410.0, 0.870072
2420.0, 0.8673705
2430.0, 0.86468804
2440.0, 0.8620246
2450.0, 0.8593798
2460.0, 0.8567534
2470.0, 0.8541454
2480.0, 0.8515554
2490.0, 0.84898335
2500.0, 0.8464289
2510.0, 0.84389204
2520.0, 0.8413725
2530.0, 0.83887
2540.0, 0.83638453
2550.0, 0.8339159
2560.0, 0.8314638
2570.0, 0.8290281
2580.0, 0.82660866
2590.0, 0.8242054
2600.0, 0.82181793
2610.0, 0.8194464
2620.0, 0.81709033
2630.0, 0.8147496
2640.0, 0.81242436
2650.0, 0.8101141
2660.0, 0.8078189
2670.0, 0.8055385
2680.0, 0.8032727
2690.0, 0.8010216
2700.0, 0.79878473
2710.0, 0.79656214
2720.0, 0.79435366
2730.0, 0.7921591
2740.0, 0.7899785
2750.0, 0.78781146
2760.0, 0.78565806
2770.0, 0.783518
2780.0, 0.78139126
2790.0, 0.7792776
2800.0, 0.7771771
2810.0, 0.7750895
2820.0, 0.7730147
2830.0, 0.7709524
2840.0, 0.76890284
2850.0, 0.7668657
2860.0, 0.7648408
2870.0, 0.76282805
2880.0, 0.7608274
2890.0, 0.7588388
2900.0, 0.75686204
2910.0, 0.754897
2920.0, 0.7529436
2930.0, 0.7510017
2940.0, 0.7490713
2950.0, 0.7471522
2960.0, 0.74524426
2970.0, 0.7433475
2980.0, 0.74146175
2990.0, 0.7395869
3000.0, 0.7377228
