Energy (in eV), SEEE yield of material te2k-NASCAP at isotropic incidence
   X,       Y
0.0, 0.0
10.0, 0.21638493
20.0, 0.4272009
30.0, 0.6334364
40.0, 0.83498156
50.0, 1.0315671
60.0, 1.2228796
70.0, 1.4086047
80.0, 1.5884687
90.0, 1.7622099
100.0, 1.9296118
110.0, 2.0904944
120.0, 2.24471
130.0, 2.39215
140.0, 2.5327415
150.0, 2.6664433
160.0, 2.7932487
170.0, 2.9131804
180.0, 3.026288
190.0, 3.1326494
200.0, 3.2323642
210.0, 3.3255546
220.0, 3.412362
230.0, 3.4929435
240.0, 3.567473
250.0, 3.6361353
260.0, 3.6991258
270.0, 3.756649
280.0, 3.8089166
290.0, 3.8561432
300.0, 3.898549
310.0, 3.9363542
320.0, 3.9697804
330.0, 3.9990475
340.0, 4.0243745
350.0, 4.0459757
360.0, 4.064062
370.0, 4.078841
380.0, 4.090513
390.0, 4.099273
400.0, 4.1053095
410.0, 4.108805
420.0, 4.109934
430.0, 4.1088634
440.0, 4.1057534
450.0, 4.1007566
460.0, 4.0940175
470.0, 4.0856752
480.0, 4.0758586
490.0, 4.064691
500.0, 4.052289
510.0, 4.0387597
520.0, 4.024207
530.0, 4.008727
540.0, 3.992409
550.0, 3.9753366
560.0, 3.957589
570.0, 3.939237
580.0, 3.9203496
590.0, 3.9009895
600.0, 3.8812141
610.0, 3.861078
620.0, 3.8406296
630.0, 3.8199167
640.0, 3.79898
650.0, 3.7778585
660.0, 3.7565887
670.0, 3.7352023
680.0, 3.7137306
690.0, 3.6922004
700.0, 3.6706362
710.0, 3.6490617
720.0, 3.6274972
730.0, 3.6059632
740.0, 3.584475
750.0, 3.563049
760.0, 3.5416994
770.0, 3.5204391
780.0, 3.4992797
790.0, 3.4782302
800.0, 3.4573016
810.0, 3.436502
820.0, 3.4158373
830.0, 3.3953152
840.0, 3.374941
850.0, 3.3547206
860.0, 3.3346577
870.0, 3.3147557
880.0, 3.295019
890.0, 3.2754502
900.0, 3.2560508
910.0, 3.2368236
920.0, 3.2177696
930.0, 3.1988907
940.0, 3.1801877
950.0, 3.161661
960.0, 3.14331
970.0, 3.1251366
980.0, 3.1071403
990.0, 3.0893202
1000.0, 3.071676
1010.0, 3.054208
1020.0, 3.0369143
1030.0, 3.019795
1040.0, 3.0028486
1050.0, 2.986074
1060.0, 2.96947
1070.0, 2.9530356
1080.0, 2.9367697
1090.0, 2.9206703
1100.0, 2.9047368
1110.0, 2.8889666
1120.0, 2.8733594
1130.0, 2.8579123
1140.0, 2.8426247
1150.0, 2.8274946
1160.0, 2.8125198
1170.0, 2.7977004
1180.0, 2.7830324
1190.0, 2.7685156
1200.0, 2.754148
1210.0, 2.739928
1220.0, 2.7258532
1230.0, 2.7119226
1240.0, 2.6981337
1250.0, 2.6844862
1260.0, 2.6709764
1270.0, 2.6576042
1280.0, 2.6443677
1290.0, 2.6312642
1300.0, 2.6182933
1310.0, 2.6054523
1320.0, 2.5927405
1330.0, 2.580155
1340.0, 2.5676954
1350.0, 2.5553594
1360.0, 2.5431454
1370.0, 2.5310526
1380.0, 2.519079
1390.0, 2.5072222
1400.0, 2.4954817
1410.0, 2.4838557
1420.0, 2.472343
1430.0, 2.4609413
1440.0, 2.44965
1450.0, 2.438467
1460.0, 2.4273918
1470.0, 2.416422
1480.0, 2.4055567
1490.0, 2.3947945
1500.0, 2.3841338
1510.0, 2.3735735
1520.0, 2.3631124
1530.0, 2.352749
1540.0, 2.3424823
1550.0, 2.3323107
1560.0, 2.3222334
1570.0, 2.3122482
1580.0, 2.3023553
1590.0, 2.2925527
1600.0, 2.2828393
1610.0, 2.2732139
1620.0, 2.2636755
1630.0, 2.2542229
1640.0, 2.244855
1650.0, 2.235571
1660.0, 2.2263696
1670.0, 2.2172494
1680.0, 2.2082098
1690.0, 2.1992495
1700.0, 2.190368
1710.0, 2.181564
1720.0, 2.172836
1730.0, 2.1641843
1740.0, 2.1556065
1750.0, 2.147103
1760.0, 2.1386719
1770.0, 2.1303124
1780.0, 2.1220248
1790.0, 2.1138067
1800.0, 2.1056576
1810.0, 2.0975769
1820.0, 2.0895638
1830.0, 2.0816178
1840.0, 2.073737
1850.0, 2.0659213
1860.0, 2.0581706
1870.0, 2.050483
1880.0, 2.0428581
1890.0, 2.0352955
1900.0, 2.027794
1910.0, 2.020353
1920.0, 2.0129716
1930.0, 2.0056498
1940.0, 1.998386
1950.0, 1.9911797
1960.0, 1.984031
1970.0, 1.9769385
1980.0, 1.9699013
1990.0, 1.9629197
2000.0, 1.9559925
2010.0, 1.9491187
2020.0, 1.9422982
2030.0, 1.9355302
2040.0, 1.9288144
2050.0, 1.9221497
2060.0, 1.9155358
2070.0, 1.9089721
2080.0, 1.902458
2090.0, 1.8959931
2100.0, 1.8895768
2110.0, 1.8832082
2120.0, 1.8768873
2130.0, 1.8706131
2140.0, 1.8643855
2150.0, 1.8582032
2160.0, 1.852067
2170.0, 1.8459754
2180.0, 1.8399278
2190.0, 1.8339243
2200.0, 1.8279644
2210.0, 1.8220475
2220.0, 1.816173
2230.0, 1.8103404
2240.0, 1.8045495
2250.0, 1.7987995
2260.0, 1.7930901
2270.0, 1.7874215
2280.0, 1.7817923
2290.0, 1.7762026
2300.0, 1.7706518
2310.0, 1.7651393
2320.0, 1.7596654
2330.0, 1.7542291
2340.0, 1.7488304
2350.0, 1.7434685
2360.0, 1.738143
2370.0, 1.732854
2380.0, 1.7276007
2390.0, 1.7223829
2400.0, 1.7172003
2410.0, 1.7120525
2420.0, 1.7069391
2430.0, 1.7018596
2440.0, 1.6968141
2450.0, 1.6918017
2460.0, 1.6868227
2470.0, 1.6818758
2480.0, 1.6769617
2490.0, 1.6720798
2500.0, 1.6672294
2510.0, 1.6624105
2520.0, 1.6576228
2530.0, 1.6528658
2540.0, 1.6481394
2550.0, 1.6434431
2560.0, 1.638777
2570.0, 1.6341404
2580.0, 1.6295328
2590.0, 1.6249547
2600.0, 1.6204052
2610.0, 1.6158848
2620.0, 1.6113918
2630.0, 1.606927
2640.0, 1.6024902
2650.0, 1.5980805
2660.0, 1.5936981
2670.0, 1.5893428
2680.0, 1.585014
2690.0, 1.5807118
2700.0, 1.5764357
2710.0, 1.5721858
2720.0, 1.5679611
2730.0, 1.5637621
2740.0, 1.5595884
2750.0, 1.5554395
2760.0, 1.5513157
2770.0, 1.5472163
2780.0, 1.5431409
2790.0, 1.5390899
2800.0, 1.5350629
2810.0, 1.5310595
2820.0, 1.5270795
2830.0, 1.5231227
2840.0, 1.5191889
2850.0, 1.515278
2860.0, 1.5113896
2870.0, 1.5075237
2880.0, 1.5036801
2890.0, 1.4998586
2900.0, 1.4960591
2910.0, 1.4922808
2920.0, 1.4885242
2930.0, 1.484789
2940.0, 1.4810747
2950.0, 1.4773813
2960.0, 1.4737087
2970.0, 1.4700569
2980.0, 1.466425
2990.0, 1.4628137
3000.0, 1.4592221
3010.0, 1.4556507
3020.0, 1.4520986
3030.0, 1.4485662
3040.0, 1.4450535
3050.0, 1.4415597
3060.0, 1.4380847
3070.0, 1.4346287
3080.0, 1.4311917
3090.0, 1.427773
3100.0, 1.4243728
3110.0, 1.420991
3120.0, 1.4176272
3130.0, 1.4142812
3140.0, 1.4109529
3150.0, 1.4076427
3160.0, 1.4043498
3170.0, 1.4010744
3180.0, 1.3978162
3190.0, 1.394575
3200.0, 1.3913506
3210.0, 1.3881432
3220.0, 1.3849525
3230.0, 1.3817785
3240.0, 1.378621
3250.0, 1.3754795
3260.0, 1.3723543
3270.0, 1.3692449
3280.0, 1.3661518
3290.0, 1.3630741
3300.0, 1.3600122
3310.0, 1.3569659
3320.0, 1.353935
3330.0, 1.3509195
3340.0, 1.3479191
3350.0, 1.3449335
3360.0, 1.3419634
3370.0, 1.3390077
3380.0, 1.3360668
3390.0, 1.3331405
3400.0, 1.3302288
3410.0, 1.3273311
3420.0, 1.3244483
3430.0, 1.3215792
3440.0, 1.3187243
3450.0, 1.3158834
3460.0, 1.3130563
3470.0, 1.3102427
3480.0, 1.3074431
3490.0, 1.304657
3500.0, 1.3018843
3510.0, 1.2991247
3520.0, 1.2963787
3530.0, 1.2936456
3540.0, 1.2909255
3550.0, 1.2882183
3560.0, 1.2855242
3570.0, 1.2828428
3580.0, 1.2801739
3590.0, 1.2775178
3600.0, 1.2748741
3610.0, 1.2722428
3620.0, 1.2696236
3630.0, 1.2670166
3640.0, 1.264422
3650.0, 1.2618393
3660.0, 1.2592688
3670.0, 1.2567098
3680.0, 1.2541627
3690.0, 1.2516272
3700.0, 1.2491034
3710.0, 1.2465912
3720.0, 1.2440907
3730.0, 1.2416012
3740.0, 1.2391229
3750.0, 1.2366561
3760.0, 1.2342001
3770.0, 1.2317556
3780.0, 1.2293218
3790.0, 1.2268989
3800.0, 1.2244871
3810.0, 1.2220856
3820.0, 1.2196951
3830.0, 1.2173151
3840.0, 1.2149457
3850.0, 1.2125868
3860.0, 1.210238
3870.0, 1.2078996
3880.0, 1.2055715
3890.0, 1.2032537
3900.0, 1.200946
3910.0, 1.1986483
3920.0, 1.1963605
3930.0, 1.1940829
3940.0, 1.191815
3950.0, 1.1895565
3960.0, 1.1873081
3970.0, 1.1850692
3980.0, 1.18284
3990.0, 1.1806203
4000.0, 1.17841
4010.0, 1.176209
4020.0, 1.1740173
4030.0, 1.1718351
4040.0, 1.1696621
4050.0, 1.1674981
4060.0, 1.1653433
4070.0, 1.1631975
4080.0, 1.1610606
4090.0, 1.1589327
4100.0, 1.1568137
4110.0, 1.1547031
4120.0, 1.1526018
4130.0, 1.150509
4140.0, 1.1484249
4150.0, 1.1463492
4160.0, 1.144282
4170.0, 1.1422234
4180.0, 1.1401732
4190.0, 1.1381311
4200.0, 1.1360979
4210.0, 1.1340725
4220.0, 1.1320554
4230.0, 1.1300462
4240.0, 1.1280456
4250.0, 1.1260527
4260.0, 1.1240679
4270.0, 1.122091
4280.0, 1.1201221
4290.0, 1.1181611
4300.0, 1.1162075
4310.0, 1.1142622
4320.0, 1.1123244
4330.0, 1.1103944
4340.0, 1.1084719
4350.0, 1.1065568
4360.0, 1.1046494
4370.0, 1.1027493
4380.0, 1.1008567
4390.0, 1.0989717
4400.0, 1.0970937
4410.0, 1.0952234
4420.0, 1.09336
4430.0, 1.0915039
4440.0, 1.0896549
4450.0, 1.0878131
4460.0, 1.0859786
4470.0, 1.0841509
4480.0, 1.0823303
4490.0, 1.0805166
4500.0, 1.0787098
4510.0, 1.0769098
4520.0, 1.0751169
4530.0, 1.0733305
4540.0, 1.0715511
4550.0, 1.0697781
4560.0, 1.0680121
4570.0, 1.0662525
4580.0, 1.0644996
4590.0, 1.0627532
4600.0, 1.0610135
4610.0, 1.05928
4620.0, 1.057553
4630.0, 1.0558326
4640.0, 1.0541186
4650.0, 1.0524106
4660.0, 1.0507092
4670.0, 1.049014
4680.0, 1.047325
4690.0, 1.045642
4700.0, 1.0439655
4710.0, 1.0422949
4720.0, 1.0406305
4730.0, 1.038972
4740.0, 1.0373197
4750.0, 1.0356731
4760.0, 1.0340327
4770.0, 1.0323981
4780.0, 1.0307696
4790.0, 1.0291468
4800.0, 1.0275297
4810.0, 1.0259186
4820.0, 1.0243131
4830.0, 1.0227133
4840.0, 1.0211194
4850.0, 1.019531
4860.0, 1.0179483
4870.0, 1.0163713
4880.0, 1.0147995
4890.0, 1.0132333
4900.0, 1.0116729
4910.0, 1.0101178
4920.0, 1.0085683
4930.0, 1.007024
4940.0, 1.0054852
4950.0, 1.0039518
4960.0, 1.0024234
4970.0, 1.0009007
4980.0, 0.99938315
4990.0, 0.9978709
5000.0, 0.99636376
5010.0, 0.9948618
5020.0, 0.99336493
5030.0, 0.99187344
5040.0, 0.99038684
5050.0, 0.9889054
5060.0, 0.987429
5070.0, 0.9859575
5080.0, 0.9844912
5090.0, 0.9830298
5100.0, 0.9815734
5110.0, 0.98012185
5120.0, 0.9786751
5130.0, 0.97723335
5140.0, 0.97579646
5150.0, 0.9743643
5160.0, 0.97293687
5170.0, 0.9715144
5180.0, 0.9700966
5190.0, 0.96868336
5200.0, 0.967275
5210.0, 0.9658712
5220.0, 0.9644722
5230.0, 0.96307755
5240.0, 0.9616878
5250.0, 0.96030253
5260.0, 0.95892155
5270.0, 0.9575454
5280.0, 0.95617366
5290.0, 0.9548064
5300.0, 0.95344365
5310.0, 0.9520853
5320.0, 0.9507313
5330.0, 0.9493817
5340.0, 0.9480365
5350.0, 0.94669574
5360.0, 0.9453591
5370.0, 0.94402707
5380.0, 0.94269913
5390.0, 0.9413753
5400.0, 0.94005597
5410.0, 0.93874073
5420.0, 0.93742955
5430.0, 0.9361228
5440.0, 0.93482006
5450.0, 0.9335216
5460.0, 0.93222713
5470.0, 0.9309369
5480.0, 0.9296506
5490.0, 0.92836845
5500.0, 0.92709017
5510.0, 0.92581594
5520.0, 0.9245459
5530.0, 0.9232795
5540.0, 0.9220175
5550.0, 0.9207591
5560.0, 0.91950476
5570.0, 0.9182543
5580.0, 0.9170076
5590.0, 0.9157649
5600.0, 0.91452616
5610.0, 0.91329086
5620.0, 0.91205966
5630.0, 0.91083217
5640.0, 0.90960854
5650.0, 0.9083885
5660.0, 0.90717226
5670.0, 0.9059599
5680.0, 0.90475094
5690.0, 0.90354574
5700.0, 0.9023444
5710.0, 0.90114665
5720.0, 0.8999525
5730.0, 0.89876187
5740.0, 0.89757484
5750.0, 0.8963915
5760.0, 0.89521164
5770.0, 0.8940352
5780.0, 0.89286256
5790.0, 0.8916933
5800.0, 0.8905275
5810.0, 0.88936526
5820.0, 0.8882064
5830.0, 0.887051
5840.0, 0.885899
5850.0, 0.8847505
5860.0, 0.88360554
5870.0, 0.8824637
5880.0, 0.88132524
5890.0, 0.8801904
5900.0, 0.87905854
5910.0, 0.8779302
5920.0, 0.8768052
5930.0, 0.8756834
5940.0, 0.87456495
5950.0, 0.8734497
5960.0, 0.87233776
5970.0, 0.871229
5980.0, 0.87012345
5990.0, 0.86902106
6000.0, 0.86792207
6010.0, 0.8668261
6020.0, 0.86573327
6030.0, 0.8646437
6040.0, 0.86355704
6050.0, 0.86247367
6060.0, 0.8613934
6070.0, 0.860316
6080.0, 0.859242
6090.0, 0.858171
6100.0, 0.85710305
6110.0, 0.8560379
6120.0, 0.85497606
6130.0, 0.8539171
6140.0, 0.852861
6150.0, 0.8518081
6160.0, 0.8507581
6170.0, 0.84971106
6180.0, 0.84866697
6190.0, 0.84762573
6200.0, 0.8465874
6210.0, 0.84555215
6220.0, 0.8445197
6230.0, 0.84349006
6240.0, 0.8424635
6250.0, 0.84143955
6260.0, 0.8404186
6270.0, 0.8394004
6280.0, 0.83838487
6290.0, 0.8373725
6300.0, 0.83636254
6310.0, 0.83535564
6320.0, 0.8343514
6330.0, 0.83335
6340.0, 0.83235127
6350.0, 0.8313552
6360.0, 0.83036196
6370.0, 0.8293715
6380.0, 0.8283836
6390.0, 0.82739836
6400.0, 0.82641596
6410.0, 0.8254362
6420.0, 0.8244589
6430.0, 0.82348454
6440.0, 0.8225126
6450.0, 0.82154346
6460.0, 0.8205767
6470.0, 0.8196126
6480.0, 0.8186513
6490.0, 0.81769234
6500.0, 0.816736
6510.0, 0.8157821
6520.0, 0.814831
6530.0, 0.81388235
6540.0, 0.8129361
6550.0, 0.81199247
6560.0, 0.8110514
6570.0, 0.8101127
6580.0, 0.8091765
6590.0, 0.808243
6600.0, 0.8073117
6610.0, 0.8063828
6620.0, 0.8054566
6630.0, 0.80453265
6640.0, 0.8036113
6650.0, 0.8026922
6660.0, 0.8017754
6670.0, 0.8008611
6680.0, 0.7999492
6690.0, 0.7990398
6700.0, 0.7981326
6710.0, 0.79722774
6720.0, 0.7963254
6730.0, 0.79542536
6740.0, 0.7945274
6750.0, 0.7936319
6760.0, 0.79273885
6770.0, 0.7918479
6780.0, 0.7909593
6790.0, 0.7900731
6800.0, 0.78918904
6810.0, 0.78830725
6820.0, 0.78742766
6830.0, 0.78655046
6840.0, 0.7856754
6850.0, 0.78480256
6860.0, 0.783932
6870.0, 0.78306365
6880.0, 0.78219736
6890.0, 0.7813334
6900.0, 0.78047156
6910.0, 0.7796119
6920.0, 0.7787545
6930.0, 0.7778991
6940.0, 0.7770459
6950.0, 0.77619505
6960.0, 0.775346
6970.0, 0.7744993
6980.0, 0.7736545
6990.0, 0.772812
7000.0, 0.7719716
7010.0, 0.77113307
7020.0, 0.7702969
7030.0, 0.7694626
7040.0, 0.7686305
7050.0, 0.76780033
7060.0, 0.7669724
7070.0, 0.76614636
7080.0, 0.7653223
7090.0, 0.76450056
7100.0, 0.7636806
7110.0, 0.7628626
7120.0, 0.76204675
7130.0, 0.76123285
7140.0, 0.7604209
7150.0, 0.7596109
7160.0, 0.758803
7170.0, 0.75799704
7180.0, 0.75719297
7190.0, 0.75639087
7200.0, 0.75559074
7210.0, 0.75479245
7220.0, 0.7539962
7230.0, 0.75320184
7240.0, 0.75240934
7250.0, 0.75161886
7260.0, 0.7508301
7270.0, 0.75004345
7280.0, 0.7492585
7290.0, 0.74847555
7300.0, 0.74769443
7310.0, 0.7469151
7320.0, 0.746138
7330.0, 0.74536234
7340.0, 0.7445887
7350.0, 0.74381673
7360.0, 0.7430467
7370.0, 0.7422785
7380.0, 0.7415121
7390.0, 0.7407476
7400.0, 0.73998475
7410.0, 0.73922384
7420.0, 0.73846453
7430.0, 0.73770726
7440.0, 0.73695165
7450.0, 0.73619765
7460.0, 0.7354456
7470.0, 0.73469526
7480.0, 0.7339467
7490.0, 0.7331999
7500.0, 0.7324547
7510.0, 0.7317114
7520.0, 0.73096967
7530.0, 0.7302298
7540.0, 0.72949165
7550.0, 0.7287551
7560.0, 0.7280203
7570.0, 0.7272872
7580.0, 0.7265558
7590.0, 0.725826
7600.0, 0.7250981
7610.0, 0.7243716
7620.0, 0.72364694
7630.0, 0.7229239
7640.0, 0.72220254
7650.0, 0.7214827
7660.0, 0.7207646
7670.0, 0.7200481
7680.0, 0.71933323
7690.0, 0.71861994
7700.0, 0.7179085
7710.0, 0.7171984
7720.0, 0.7164901
7730.0, 0.7157832
7740.0, 0.715078
7750.0, 0.7143745
7760.0, 0.7136723
7770.0, 0.71297204
7780.0, 0.712273
7790.0, 0.71157575
7800.0, 0.71088004
7810.0, 0.7101859
7820.0, 0.7094932
7830.0, 0.70880216
7840.0, 0.7081126
7850.0, 0.7074246
7860.0, 0.7067381
7870.0, 0.70605326
7880.0, 0.7053698
7890.0, 0.70468783
7900.0, 0.7040074
7910.0, 0.70332855
7920.0, 0.702651
7930.0, 0.7019752
7940.0, 0.7013007
7950.0, 0.70062774
7960.0, 0.6999563
7970.0, 0.69928634
7980.0, 0.6986178
7990.0, 0.6979507
8000.0, 0.6972851
8010.0, 0.6966208
8020.0, 0.6959582
8030.0, 0.695297
8040.0, 0.6946371
8050.0, 0.6939788
8060.0, 0.6933217
8070.0, 0.69266635
8080.0, 0.69201225
8090.0, 0.6913594
8100.0, 0.69070816
8110.0, 0.6900583
8120.0, 0.6894098
8130.0, 0.6887626
8140.0, 0.6881169
8150.0, 0.68747264
8160.0, 0.6868297
8170.0, 0.68618816
8180.0, 0.68554795
8190.0, 0.6849091
8200.0, 0.68427163
8210.0, 0.6836356
8220.0, 0.68300074
8230.0, 0.68236744
8240.0, 0.6817354
8250.0, 0.6811046
8260.0, 0.6804752
8270.0, 0.6798471
8280.0, 0.67922044
8290.0, 0.6785951
8300.0, 0.67797095
8310.0, 0.67734814
8320.0, 0.67672676
8330.0, 0.6761066
8340.0, 0.6754877
8350.0, 0.6748703
8360.0, 0.6742539
8370.0, 0.67363894
8380.0, 0.6730252
8390.0, 0.67241275
8400.0, 0.67180175
8410.0, 0.6711919
8420.0, 0.67058325
8430.0, 0.669976
8440.0, 0.66936994
8450.0, 0.66876507
8460.0, 0.66816145
8470.0, 0.66755915
8480.0, 0.66695815
8490.0, 0.66635823
8500.0, 0.66575974
8510.0, 0.66516227
8520.0, 0.66456616
8530.0, 0.66397125
8540.0, 0.6633775
8550.0, 0.66278505
8560.0, 0.6621937
8570.0, 0.66160375
8580.0, 0.66101485
8590.0, 0.66042715
8600.0, 0.65984064
8610.0, 0.6592555
8620.0, 0.6586714
8630.0, 0.65808845
8640.0, 0.6575067
8650.0, 0.6569262
8660.0, 0.6563469
8670.0, 0.6557687
8680.0, 0.6551917
8690.0, 0.6546158
8700.0, 0.6540411
8710.0, 0.6534675
8720.0, 0.6528951
8730.0, 0.6523239
8740.0, 0.6517537
8750.0, 0.6511848
8760.0, 0.65061694
8770.0, 0.6500503
8780.0, 0.64948475
8790.0, 0.6489203
8800.0, 0.648357
8810.0, 0.6477947
8820.0, 0.6472338
8830.0, 0.64667374
8840.0, 0.6461149
8850.0, 0.64555717
8860.0, 0.64500046
8870.0, 0.64444494
8880.0, 0.64389056
8890.0, 0.6433372
8900.0, 0.6427849
8910.0, 0.64223367
8920.0, 0.6416836
8930.0, 0.6411346
8940.0, 0.6405867
8950.0, 0.64003974
8960.0, 0.63949394
8970.0, 0.63894916
8980.0, 0.6384055
8990.0, 0.6378629
9000.0, 0.63732135
9010.0, 0.6367808
9020.0, 0.6362414
9030.0, 0.63570297
9040.0, 0.6351657
9050.0, 0.63462937
9060.0, 0.634094
9070.0, 0.63355976
9080.0, 0.6330266
9090.0, 0.6324944
9100.0, 0.63196313
9110.0, 0.63143307
9120.0, 0.6309039
9130.0, 0.6303758
9140.0, 0.6298486
9150.0, 0.6293226
9160.0, 0.6287975
9170.0, 0.6282734
9180.0, 0.62775034
9190.0, 0.62722826
9200.0, 0.62670726
9210.0, 0.626187
9220.0, 0.6256679
9230.0, 0.62514985
9240.0, 0.62463266
9250.0, 0.62411654
9260.0, 0.6236013
9270.0, 0.6230871
9280.0, 0.6225739
9290.0, 0.6220616
9300.0, 0.6215503
9310.0, 0.6210399
9320.0, 0.62053066
9330.0, 0.62002224
9340.0, 0.6195147
9350.0, 0.6190082
9360.0, 0.6185027
9370.0, 0.6179981
9380.0, 0.6174943
9390.0, 0.61699164
9400.0, 0.61648977
9410.0, 0.615989
9420.0, 0.61548895
9430.0, 0.61499006
9440.0, 0.61449194
9450.0, 0.6139948
9460.0, 0.6134985
9470.0, 0.61300313
9480.0, 0.61250883
9490.0, 0.61201537
9500.0, 0.6115227
9510.0, 0.6110311
9520.0, 0.61054033
9530.0, 0.6100505
9540.0, 0.6095615
9550.0, 0.60907346
9560.0, 0.6085863
9570.0, 0.60810006
9580.0, 0.6076147
9590.0, 0.60713017
9600.0, 0.60664654
9610.0, 0.6061638
9620.0, 0.60568196
9630.0, 0.60520107
9640.0, 0.60472095
9650.0, 0.6042417
9660.0, 0.60376334
9670.0, 0.6032859
9680.0, 0.60280925
9690.0, 0.60233355
9700.0, 0.6018587
9710.0, 0.6013846
9720.0, 0.60091144
9730.0, 0.6004391
9740.0, 0.5999676
9750.0, 0.599497
9760.0, 0.5990272
9770.0, 0.5985582
9780.0, 0.5980901
9790.0, 0.5976229
9800.0, 0.5971565
9810.0, 0.59669095
9820.0, 0.59622616
9830.0, 0.5957622
9840.0, 0.5952991
9850.0, 0.5948368
9860.0, 0.59437543
9870.0, 0.5939148
9880.0, 0.5934549
9890.0, 0.5929959
9900.0, 0.5925378
9910.0, 0.5920805
9920.0, 0.5916238
9930.0, 0.59116805
9940.0, 0.59071314
9950.0, 0.590259
9960.0, 0.5898056
9970.0, 0.5893531
9980.0, 0.5889013
9990.0, 0.5884503
10000.0, 0.5880001
10010.0, 0.5875508
10020.0, 0.58710223
10030.0, 0.58665437
10040.0, 0.58620733
10050.0, 0.58576113
10060.0, 0.5853157
10070.0, 0.584871
10080.0, 0.584427
10090.0, 0.58398384
10100.0, 0.5835415
10110.0, 0.5830999
10120.0, 0.5826591
10130.0, 0.58221895
10140.0, 0.5817797
10150.0, 0.58134115
10160.0, 0.5809033
10170.0, 0.5804663
10180.0, 0.58002996
10190.0, 0.57959443
10200.0, 0.5791596
10210.0, 0.57872564
10220.0, 0.5782923
10230.0, 0.5778598
10240.0, 0.5774279
10250.0, 0.57699686
10260.0, 0.5765666
10270.0, 0.5761369
10280.0, 0.57570815
10290.0, 0.5752799
10300.0, 0.5748525
10310.0, 0.5744258
10320.0, 0.5739999
10330.0, 0.5735747
10340.0, 0.57315016
10350.0, 0.57272637
10360.0, 0.5723033
10370.0, 0.571881
10380.0, 0.57145935
10390.0, 0.5710385
10400.0, 0.5706182
10410.0, 0.57019866
10420.0, 0.56978
10430.0, 0.56936187
10440.0, 0.5689445
10450.0, 0.5685278
10460.0, 0.5681118
10470.0, 0.56769645
10480.0, 0.56728184
10490.0, 0.566868
10500.0, 0.56645477
10510.0, 0.56604224
10520.0, 0.5656304
10530.0, 0.5652193
10540.0, 0.5648089
10550.0, 0.5643991
10560.0, 0.56398994
10570.0, 0.5635815
10580.0, 0.56317383
10590.0, 0.5627668
10600.0, 0.56236035
10610.0, 0.5619547
10620.0, 0.56154954
10630.0, 0.56114525
10640.0, 0.5607415
10650.0, 0.56033856
10660.0, 0.5599362
10670.0, 0.55953443
10680.0, 0.55913335
10690.0, 0.558733
10700.0, 0.55833334
10710.0, 0.55793417
10720.0, 0.5575357
10730.0, 0.557138
10740.0, 0.5567408
10750.0, 0.5563444
10760.0, 0.55594856
10770.0, 0.55555344
10780.0, 0.55515885
10790.0, 0.554765
10800.0, 0.5543717
10810.0, 0.55397904
10820.0, 0.55358714
10830.0, 0.5531957
10840.0, 0.55280507
10850.0, 0.5524149
10860.0, 0.5520255
10870.0, 0.5516367
10880.0, 0.55124855
10890.0, 0.5508609
10900.0, 0.55047405
10910.0, 0.55008775
10920.0, 0.549702
10930.0, 0.54931694
10940.0, 0.54893243
10950.0, 0.54854864
10960.0, 0.5481654
10970.0, 0.54778284
10980.0, 0.5474009
10990.0, 0.5470194
