Energy (in eV), SEEE yield of material bk2k-NASCAP at incidence 90.0 degree
   X,       Y
0.0, 0.0
10.0, 0.36361098
20.0, 0.7034618
30.0, 1.0226024
40.0, 1.3212225
50.0, 1.5991218
60.0, 1.8561068
70.0, 2.0921152
80.0, 2.3072567
90.0, 2.5018198
100.0, 2.676266
110.0, 2.8312113
120.0, 2.9674077
130.0, 3.085723
140.0, 3.1871142
150.0, 3.272608
160.0, 3.3432796
170.0, 3.400229
180.0, 3.444569
190.0, 3.4774058
200.0, 3.4998212
210.0, 3.51287
220.0, 3.517561
230.0, 3.514854
240.0, 3.5056539
250.0, 3.4908059
260.0, 3.4710906
270.0, 3.4472287
280.0, 3.4198742
290.0, 3.3896213
300.0, 3.3570023
310.0, 3.3224926
320.0, 3.2865129
330.0, 3.2494328
340.0, 3.211576
350.0, 3.1732197
360.0, 3.1346033
370.0, 3.0959313
380.0, 3.0573742
390.0, 3.0190754
400.0, 2.9811516
410.0, 2.9436984
420.0, 2.9067922
430.0, 2.870492
440.0, 2.8348432
450.0, 2.7998776
460.0, 2.7656193
470.0, 2.732082
480.0, 2.6992717
490.0, 2.6671908
500.0, 2.6358345
510.0, 2.6051958
520.0, 2.5752637
530.0, 2.5460258
540.0, 2.5174677
550.0, 2.4895728
560.0, 2.462325
570.0, 2.4357069
580.0, 2.4097006
590.0, 2.384288
600.0, 2.3594527
610.0, 2.335176
620.0, 2.311441
630.0, 2.2882314
640.0, 2.2655303
650.0, 2.2433221
660.0, 2.2215912
670.0, 2.2003229
680.0, 2.1795027
690.0, 2.1591165
700.0, 2.1391516
710.0, 2.119594
720.0, 2.1004322
730.0, 2.0816536
740.0, 2.0632472
750.0, 2.0452015
760.0, 2.027506
770.0, 2.010151
780.0, 1.9931257
790.0, 1.976421
800.0, 1.9600279
810.0, 1.9439375
820.0, 1.9281412
830.0, 1.9126312
840.0, 1.8973992
850.0, 1.8824377
860.0, 1.8677397
870.0, 1.8532981
880.0, 1.8391056
890.0, 1.825156
900.0, 1.8114431
910.0, 1.7979604
920.0, 1.7847025
930.0, 1.7716632
940.0, 1.7588375
950.0, 1.7462194
960.0, 1.7338045
970.0, 1.7215871
980.0, 1.709563
990.0, 1.697727
1000.0, 1.686075
1010.0, 1.6746025
1020.0, 1.6633052
1030.0, 1.652179
1040.0, 1.6412201
1050.0, 1.6304244
1060.0, 1.6197884
1070.0, 1.6093082
1080.0, 1.5989807
1090.0, 1.5888022
1100.0, 1.5787693
1110.0, 1.5688791
1120.0, 1.5591283
1130.0, 1.549514
1140.0, 1.5400332
1150.0, 1.530683
1160.0, 1.5214609
1170.0, 1.5123639
1180.0, 1.5033894
1190.0, 1.4945349
1200.0, 1.4857979
1210.0, 1.4771764
1220.0, 1.4686675
1230.0, 1.4602692
1240.0, 1.4519793
1250.0, 1.4437957
1260.0, 1.4357162
1270.0, 1.4277385
1280.0, 1.4198613
1290.0, 1.4120821
1300.0, 1.404399
1310.0, 1.3968105
1320.0, 1.3893145
1330.0, 1.3819095
1340.0, 1.374594
1350.0, 1.3673656
1360.0, 1.3602233
1370.0, 1.3531654
1380.0, 1.3461902
1390.0, 1.3392966
1400.0, 1.3324826
1410.0, 1.3257471
1420.0, 1.3190887
1430.0, 1.3125058
1440.0, 1.3059974
1450.0, 1.299562
1460.0, 1.2931983
1470.0, 1.2869054
1480.0, 1.2806818
1490.0, 1.2745262
1500.0, 1.2684377
1510.0, 1.2624152
1520.0, 1.2564573
1530.0, 1.2505633
1540.0, 1.2447318
1550.0, 1.238962
1560.0, 1.2332528
1570.0, 1.2276032
1580.0, 1.2220123
1590.0, 1.2164791
1600.0, 1.2110028
1610.0, 1.2055823
1620.0, 1.2002169
1630.0, 1.1949055
1640.0, 1.1896476
1650.0, 1.1844423
1660.0, 1.1792884
1670.0, 1.1741855
1680.0, 1.1691327
1690.0, 1.164129
1700.0, 1.1591743
1710.0, 1.1542673
1720.0, 1.1494075
1730.0, 1.1445942
1740.0, 1.1398264
1750.0, 1.135104
1760.0, 1.1304258
1770.0, 1.1257917
1780.0, 1.1212004
1790.0, 1.1166518
1800.0, 1.1121451
1810.0, 1.1076796
1820.0, 1.1032549
1830.0, 1.0988705
1840.0, 1.0945256
1850.0, 1.0902197
1860.0, 1.0859524
1870.0, 1.0817229
1880.0, 1.0775309
1890.0, 1.0733758
1900.0, 1.0692573
1910.0, 1.0651745
1920.0, 1.0611272
1930.0, 1.0571148
1940.0, 1.0531371
1950.0, 1.0491934
1960.0, 1.0452831
1970.0, 1.041406
1980.0, 1.0375617
1990.0, 1.0337496
2000.0, 1.0299695
2010.0, 1.0262206
2020.0, 1.0225029
2030.0, 1.0188158
2040.0, 1.0151589
2050.0, 1.011532
2060.0, 1.0079345
2070.0, 1.0043662
2080.0, 1.0008266
2090.0, 0.9973153
2100.0, 0.9938321
2110.0, 0.9903767
2120.0, 0.98694843
2130.0, 0.9835472
2140.0, 0.98017275
2150.0, 0.9768246
2160.0, 0.9735026
2170.0, 0.9702062
2180.0, 0.9669353
2190.0, 0.96368945
2200.0, 0.9604684
2210.0, 0.95727193
2220.0, 0.95409966
2230.0, 0.9509513
2240.0, 0.9478267
2250.0, 0.94472545
2260.0, 0.9416472
2270.0, 0.9385919
2280.0, 0.9355591
2290.0, 0.9325487
2300.0, 0.9295603
2310.0, 0.9265938
2320.0, 0.9236489
2330.0, 0.92072517
2340.0, 0.91782266
2350.0, 0.9149409
2360.0, 0.9120798
2370.0, 0.9092392
2380.0, 0.90641856
2390.0, 0.9036179
2400.0, 0.90083706
2410.0, 0.8980757
2420.0, 0.89533365
2430.0, 0.89261067
2440.0, 0.88990647
2450.0, 0.8872211
2460.0, 0.88455415
2470.0, 0.88190544
2480.0, 0.8792748
2490.0, 0.87666214
2500.0, 0.87406707
2510.0, 0.8714896
2520.0, 0.8689294
2530.0, 0.8663864
2540.0, 0.8638603
2550.0, 0.86135113
2560.0, 0.85885847
2570.0, 0.85638225
2580.0, 0.85392237
2590.0, 0.8514786
2600.0, 0.8490508
2610.0, 0.8466386
2620.0, 0.8442423
2630.0, 0.8418612
2640.0, 0.83949566
2650.0, 0.83714527
2660.0, 0.8348098
2670.0, 0.83248925
2680.0, 0.83018327
2690.0, 0.827892
2700.0, 0.8256151
2710.0, 0.8233525
2720.0, 0.8211041
2730.0, 0.81886977
2740.0, 0.8166492
2750.0, 0.81444246
2760.0, 0.81224924
2770.0, 0.8100695
2780.0, 0.80790305
2790.0, 0.8057499
2800.0, 0.80360985
2810.0, 0.80148274
2820.0, 0.79936856
2830.0, 0.79726714
2840.0, 0.7951781
2850.0, 0.7931018
2860.0, 0.7910377
2870.0, 0.788986
2880.0, 0.78694636
2890.0, 0.7849188
2900.0, 0.78290313
2910.0, 0.7808992
2920.0, 0.7789071
2930.0, 0.77692664
2940.0, 0.7749576
2950.0, 0.77299994
2960.0, 0.77105355
2970.0, 0.7691184
2980.0, 0.7671944
2990.0, 0.7652814
3000.0, 0.76337916
