Energy (in eV), SEEP yield of material sc2k-NASCAP at incidence 90.0 degree
   X,       Y
0.0, 0.0
200.0, 2.3890042
400.0, 5.0634446
600.0, 7.2287245
800.0, 9.531175
1000.0, 11.97782
1200.0, 14.56633
1400.0, 17.291817
1600.0, 19.309301
1800.0, 22.242321
2000.0, 24.362263
2200.0, 27.493145
2400.0, 29.715618
2600.0, 31.968004
2800.0, 34.251144
3000.0, 36.565536
3200.0, 38.911476
3400.0, 41.289043
3600.0, 43.69822
3800.0, 46.138885
4000.0, 48.610836
4200.0, 51.113857
4400.0, 53.647644
4600.0, 56.21189
4800.0, 58.80628
5000.0, 61.43045
5200.0, 64.084076
5400.0, 66.76678
5600.0, 69.478195
5800.0, 70.64802
6000.0, 73.39031
6200.0, 76.160736
6400.0, 78.95889
6600.0, 81.784424
6800.0, 82.944214
7000.0, 85.800125
7200.0, 88.68273
7400.0, 91.59162
7600.0, 92.74297
7800.0, 95.68163
8000.0, 98.64591
8200.0, 99.78752
8400.0, 102.78112
8600.0, 105.799614
8800.0, 108.84265
9000.0, 109.98046
9200.0, 113.05195
9400.0, 116.14729
9600.0, 117.278435
9800.0, 120.40164
10000.0, 123.54805
10200.0, 124.673515
10400.0, 127.84718
10600.0, 131.04338
10800.0, 132.16403
11000.0, 135.38687
11200.0, 136.49886
11400.0, 139.74808
11600.0, 143.01883
11800.0, 144.1272
12000.0, 147.42372
12200.0, 150.74121
12400.0, 151.84637
12600.0, 155.18898
12800.0, 156.28693
13000.0, 159.65434
13200.0, 163.04184
13400.0, 164.13737
13600.0, 167.54904
13800.0, 168.63808
14000.0, 172.07362
14200.0, 173.15645
14400.0, 176.61559
14600.0, 180.0937
14800.0, 181.17488
15000.0, 184.676
15200.0, 185.75146
15400.0, 189.27525
15600.0, 190.34521
15800.0, 193.89142
16000.0, 197.45547
16200.0, 198.52437
16400.0, 202.11032
16600.0, 203.17404
16800.0, 206.78154
17000.0, 207.84033
17200.0, 211.46909
17400.0, 212.52304
17600.0, 216.17282
17800.0, 217.22214
18000.0, 220.8926
18200.0, 224.57951
18400.0, 225.62828
18600.0, 229.33539
18800.0, 230.37975
19000.0, 234.10677
19200.0, 235.14682
19400.0, 238.89352
19600.0, 239.92937
19800.0, 243.6955
20000.0, 244.72723
20200.0, 248.51245
20400.0, 249.54022
20600.0, 253.34438
20800.0, 254.36818
21000.0, 258.19095
21200.0, 259.21103
21400.0, 263.05215
21600.0, 264.06842
21800.0, 267.92773
22000.0, 268.94034
22200.0, 272.81754
22400.0, 273.8265
22600.0, 277.72144
22800.0, 278.7269
23000.0, 282.63925
23200.0, 283.6412
23400.0, 287.57074
23600.0, 288.56924
23800.0, 292.51584
24000.0, 293.51102
24200.0, 297.47427
24400.0, 298.46616
24600.0, 302.44598
24800.0, 303.4346
25000.0, 307.43073
25200.0, 308.41614
25400.0, 312.42838
25600.0, 313.41052
25800.0, 317.43875
26000.0, 318.4178
26200.0, 322.46167
26400.0, 323.43765
26600.0, 327.49698
26800.0, 328.46988
27000.0, 332.54456
27200.0, 333.51437
27400.0, 337.6042
27600.0, 338.57098
27800.0, 342.67566
28000.0, 343.6395
28200.0, 347.7589
28400.0, 348.71982
28600.0, 349.6749
28800.0, 353.8117
29000.0, 354.76395
29200.0, 358.9151
29400.0, 359.8645
29600.0, 364.0298
29800.0, 364.97638
30000.0, 369.15558
30200.0, 370.09937
30400.0, 374.29236
30600.0, 375.23334
30800.0, 379.4399
31000.0, 380.3782
31200.0, 384.5982
31400.0, 385.53375
31600.0, 386.46387
31800.0, 390.69986
32000.0, 391.62732
32200.0, 395.8763
32400.0, 396.80115
32600.0, 401.06302
32800.0, 401.98523
33000.0, 406.25986
33200.0, 407.17947
33400.0, 411.46658
33600.0, 412.38358
33800.0, 413.29553
34000.0, 417.59756
34200.0, 418.50693
34400.0, 422.8212
34600.0, 423.72806
34800.0, 428.05438
35000.0, 428.95865
35200.0, 433.29694
35400.0, 434.19873
35600.0, 438.5488
35800.0, 439.44803
36000.0, 440.3425
36200.0, 444.70648
36400.0, 445.59854
36600.0, 449.974
36800.0, 450.86356
37000.0, 455.2503
37200.0, 456.13736
37400.0, 460.53537
37600.0, 461.41998
37800.0, 462.30002
38000.0, 466.71118
38200.0, 467.5888
38400.0, 472.01093
38600.0, 472.88614
38800.0, 477.31897
39000.0, 478.19183
39200.0, 482.63525
39400.0, 483.5057
39600.0, 484.37167
39800.0, 488.82767
40000.0, 489.69138
40200.0, 494.15765
40400.0, 495.01898
40600.0, 499.49557
40800.0, 500.3545
41000.0, 504.8412
41200.0, 505.69772
41400.0, 506.55008
41600.0, 511.0486
41800.0, 511.89865
42000.0, 516.40704
42200.0, 517.25476
42400.0, 521.7728
42600.0, 522.6182
42800.0, 527.1459
43000.0, 527.989
43200.0, 528.8281
43400.0, 533.367
43600.0, 534.2038
43800.0, 538.752
44000.0, 539.58655
44200.0, 544.1439
44400.0, 544.9762
44600.0, 545.8044
44800.0, 550.37274
45000.0, 551.19867
45200.0, 555.77606
45400.0, 556.59973
45600.0, 561.1859
45800.0, 562.0074
46000.0, 562.825
46200.0, 567.42163
46400.0, 568.23694
46600.0, 572.8422
46800.0, 573.65546
47000.0, 578.2692
47200.0, 579.08014
47400.0, 583.7024
47600.0, 584.51105
47800.0, 585.31604
48000.0, 589.9481
48200.0, 590.751
48400.0, 595.39124
48600.0, 596.19183
48800.0, 600.84033
49000.0, 601.6387
49200.0, 602.43335
49400.0, 607.0914
49600.0, 607.88385
49800.0, 612.54974
50000.0, 613.3401
50200.0, 618.01373
50400.0, 618.80194
50600.0, 619.58655
50800.0, 624.2694
51000.0, 625.0519
51200.0, 629.7422
51400.0, 630.52264
51600.0, 635.2205
51800.0, 635.9986
52000.0, 636.7733
52200.0, 641.48004
52400.0, 642.25256
52600.0, 646.96655
52800.0, 647.73694
53000.0, 652.45825
53200.0, 653.22656
53400.0, 653.99133
53600.0, 658.72107
53800.0, 659.48376
54000.0, 664.2205
54200.0, 664.98114
54400.0, 669.72485
54600.0, 670.4833
54800.0, 671.23846
55000.0, 675.9903
55200.0, 676.7434
55400.0, 681.50195
55600.0, 682.2529
55800.0, 683.0006
56000.0, 687.767
56200.0, 688.51263
56400.0, 693.2858
56600.0, 694.0293
56800.0, 698.80884
57000.0, 699.55023
57200.0, 700.28845
57400.0, 705.0757
57600.0, 705.81165
57800.0, 710.6054
58000.0, 711.3394
58200.0, 716.13916
58400.0, 716.87115
58600.0, 717.60004
58800.0, 722.4071
59000.0, 723.13385
59200.0, 727.9472
59400.0, 728.67194
59600.0, 733.4912
59800.0, 734.2138
60000.0, 734.9333
60200.0, 739.7596
60400.0, 740.4772
60600.0, 745.30945
60800.0, 746.0248
61000.0, 750.86285
61200.0, 751.5762
61400.0, 752.2866
61600.0, 757.13135
61800.0, 757.83966
62000.0, 762.6901
62200.0, 763.39636
62400.0, 764.0998
62600.0, 768.9566
62800.0, 769.658
63000.0, 774.5203
63200.0, 775.2197
63400.0, 780.08765
63600.0, 780.7848
63800.0, 781.4793
64000.0, 786.35345
64200.0, 787.0458
64400.0, 791.92535
64600.0, 792.6156
64800.0, 797.5003
65000.0, 798.1886
65200.0, 798.8741
65400.0, 803.76495
65600.0, 804.4484
65800.0, 809.3443
66000.0, 810.0257
66200.0, 810.7043
66400.0, 815.606
66600.0, 816.28265
66800.0, 821.18945
67000.0, 821.8641
67200.0, 826.7757
67400.0, 827.44836
67600.0, 828.11816
67800.0, 833.03546
68000.0, 833.70337
68200.0, 838.62555
68400.0, 839.2914
68600.0, 844.2183
68800.0, 844.8821
69000.0, 845.5433
69200.0, 850.4755
69400.0, 851.1347
69600.0, 856.0715
69800.0, 856.72876
70000.0, 857.38324
70200.0, 862.3255
70400.0, 862.97815
70600.0, 867.9246
70800.0, 868.5753
71000.0, 873.52625
71200.0, 874.175
71400.0, 874.821
71600.0, 879.7771
71800.0, 880.4211
72000.0, 885.3815
72200.0, 886.0236
72400.0, 886.66315
72600.0, 891.6284
72800.0, 892.2659
73000.0, 897.23553
73200.0, 897.87115
73400.0, 902.8448
73600.0, 903.4784
73800.0, 904.10956
74000.0, 909.0878
74200.0, 909.717
74400.0, 914.69946
74600.0, 915.3266
74800.0, 920.31305
75000.0, 920.93835
75200.0, 921.5611
75400.0, 926.55206
75600.0, 927.1728
75800.0, 932.16766
76000.0, 932.78644
76200.0, 933.40314
76400.0, 938.4021
76600.0, 939.0167
76800.0, 944.01965
77000.0, 944.6322
77200.0, 949.63885
77400.0, 950.2496
77600.0, 950.85785
77800.0, 955.86865
78000.0, 956.47504
78200.0, 961.48944
78400.0, 962.0939
78600.0, 967.1119
78800.0, 967.7145
79000.0, 968.3145
79200.0, 973.3366
79400.0, 973.93494
79600.0, 978.96045
79800.0, 979.5569
80000.0, 980.15063
80200.0, 985.1801
80400.0, 985.77234
80600.0, 990.8052
80800.0, 991.3953
81000.0, 996.4315
81200.0, 997.0197
81400.0, 997.60565
81600.0, 1002.64557
81800.0, 1003.2296
82000.0, 1008.27277
82200.0, 1008.85504
82400.0, 1009.4349
82600.0, 1014.4816
82800.0, 1015.0596
83000.0, 1020.10944
83200.0, 1020.68567
83400.0, 1025.7389
83600.0, 1026.313
83800.0, 1026.8851
84000.0, 1031.9415
84200.0, 1032.5117
84400.0, 1037.5712
84600.0, 1038.1395
84800.0, 1043.2021
85000.0, 1043.7686
85200.0, 1044.3326
85400.0, 1049.3986
85600.0, 1049.9609
85800.0, 1055.0297
86000.0, 1055.5901
86200.0, 1056.1483
86400.0, 1061.2203
86600.0, 1061.7766
86800.0, 1066.8517
87000.0, 1067.4059
87200.0, 1072.4838
87400.0, 1073.0364
87600.0, 1073.5868
87800.0, 1078.6675
88000.0, 1079.2162
88200.0, 1084.2997
88400.0, 1084.8464
88600.0, 1089.9326
88800.0, 1090.4774
89000.0, 1091.0203
89200.0, 1096.1093
89400.0, 1096.6503
89600.0, 1101.7421
89800.0, 1102.2811
90000.0, 1102.8182
90200.0, 1107.9127
90400.0, 1108.4478
90600.0, 1113.5449
90800.0, 1114.0781
91000.0, 1119.1776
91200.0, 1119.7092
91400.0, 1120.2389
91600.0, 1125.341
91800.0, 1125.8685
92000.0, 1130.9731
92200.0, 1131.4989
92400.0, 1136.606
92600.0, 1137.1301
92800.0, 1137.6521
93000.0, 1142.7615
93200.0, 1143.2817
93400.0, 1148.3934
93600.0, 1148.9117
93800.0, 1149.4282
94000.0, 1154.5424
94200.0, 1155.057
94400.0, 1160.1736
94600.0, 1160.6864
94800.0, 1165.8052
95000.0, 1166.3162
95200.0, 1166.8252
95400.0, 1171.9462
95600.0, 1172.4532
95800.0, 1177.5765
96000.0, 1178.0819
96200.0, 1183.2074
96400.0, 1183.7108
96600.0, 1184.2124
96800.0, 1189.3401
97000.0, 1189.84
97200.0, 1194.9695
97400.0, 1195.4675
97600.0, 1195.9639
97800.0, 1201.0955
98000.0, 1201.59
98200.0, 1206.7235
98400.0, 1207.2162
98600.0, 1212.3519
98800.0, 1212.8427
99000.0, 1213.3317
99200.0, 1218.4694
99400.0, 1218.9564
99600.0, 1224.096
99800.0, 1224.5814
100000.0, 1229.7229
