Energy (in eV), SEEP yield of material te2k-NASCAP at incidence 90.0 degree
   X,       Y
0.0, 0.0
200.0, 4.4648094
400.0, 8.66965
600.0, 13.494735
800.0, 17.783134
1000.0, 22.33569
1200.0, 27.147633
1400.0, 30.745382
1600.0, 35.947655
1800.0, 39.72988
2000.0, 45.304985
2200.0, 49.274418
2400.0, 53.296623
2600.0, 57.37347
2800.0, 63.556293
3000.0, 67.81419
3200.0, 72.126
3400.0, 76.49186
3600.0, 80.911606
3800.0, 85.38498
4000.0, 89.91148
4200.0, 94.49068
4400.0, 99.12193
4600.0, 103.8046
4800.0, 108.53803
5000.0, 110.62337
5200.0, 115.40651
5400.0, 120.23944
5600.0, 125.12132
5800.0, 130.05138
6000.0, 135.02887
6200.0, 140.05298
6400.0, 142.09956
6600.0, 147.17201
6800.0, 152.28969
7000.0, 157.45181
7200.0, 159.46832
7400.0, 164.67761
7600.0, 169.9299
7800.0, 175.22447
8000.0, 180.56062
8200.0, 182.557
8400.0, 187.93793
8600.0, 193.35902
8800.0, 195.33156
9000.0, 200.79637
9200.0, 206.29993
9400.0, 211.84166
9600.0, 213.79721
9800.0, 219.38074
10000.0, 225.00108
10200.0, 226.93735
10400.0, 232.59831
10600.0, 238.29477
10800.0, 240.21332
11000.0, 245.94916
11200.0, 251.71933
11400.0, 253.62138
11600.0, 259.42972
11800.0, 265.27118
12000.0, 267.1578
12200.0, 273.0362
12400.0, 278.94653
12600.0, 280.81857
12800.0, 286.76468
13000.0, 292.7417
13200.0, 294.59988
13400.0, 300.61145
13600.0, 302.45218
13800.0, 308.4978
14000.0, 314.5727
14200.0, 316.4008
14400.0, 322.5085
14600.0, 328.64462
14800.0, 330.46048
15000.0, 336.62833
15200.0, 338.4284
15400.0, 344.62756
15600.0, 350.8535
15800.0, 352.64212
16000.0, 358.8983
16200.0, 360.672
16400.0, 366.95786
16600.0, 373.26917
16800.0, 375.03207
17000.0, 381.37204
17200.0, 383.12082
17400.0, 389.48895
17600.0, 395.88138
17800.0, 397.61975
18000.0, 404.0393
18200.0, 405.7642
18400.0, 412.21045
18600.0, 413.92206
18800.0, 420.39456
19000.0, 426.8897
19200.0, 428.59158
19400.0, 435.112
19600.0, 436.80103
19800.0, 443.34644
20000.0, 445.02292
20200.0, 451.5928
20400.0, 458.18378
20600.0, 459.8509
20800.0, 466.46542
21000.0, 468.12048
21200.0, 474.7582
21400.0, 476.4013
21600.0, 483.06186
21800.0, 489.74216
22000.0, 491.37613
22200.0, 498.07837
22400.0, 499.70078
22600.0, 506.42465
22800.0, 508.03564
23000.0, 514.78076
23200.0, 516.3805
23400.0, 523.1464
23600.0, 529.9304
23800.0, 531.5214
24000.0, 538.32556
24200.0, 539.9055
24400.0, 546.7294
24600.0, 548.29846
24800.0, 555.14185
25000.0, 556.70013
25200.0, 563.56244
25400.0, 570.4416
25600.0, 571.9913
25800.0, 578.88873
26000.0, 580.428
26200.0, 587.34344
26400.0, 588.8723
26600.0, 595.8055
26800.0, 597.3241
27000.0, 604.27466
27200.0, 605.78314
27400.0, 612.7508
27600.0, 619.73346
27800.0, 621.23346
28000.0, 628.2327
28200.0, 629.7227
28400.0, 636.7382
28600.0, 638.2183
28800.0, 645.24963
29000.0, 646.72
29200.0, 653.76697
29400.0, 655.22754
29600.0, 662.2897
29800.0, 663.7407
30000.0, 670.818
30200.0, 677.9087
30400.0, 679.3514
30600.0, 686.45654
30800.0, 687.8897
31000.0, 695.00916
31200.0, 696.43304
31400.0, 703.56647
31600.0, 704.9809
31800.0, 712.12805
32000.0, 713.53326
32200.0, 720.69385
32400.0, 722.0899
32600.0, 729.2636
32800.0, 730.6506
33000.0, 737.83734
33200.0, 745.0358
33400.0, 746.4145
33600.0, 753.6256
33800.0, 754.99536
34000.0, 762.2186
34200.0, 763.57947
34400.0, 770.81476
34600.0, 772.16675
34800.0, 779.4138
35000.0, 780.75696
35200.0, 788.0157
35400.0, 789.3501
35600.0, 796.6202
35800.0, 797.94586
36000.0, 805.22705
36200.0, 812.51855
36400.0, 813.83624
36600.0, 821.1385
36800.0, 822.4475
37000.0, 829.7603
37200.0, 831.0609
37400.0, 838.384
37600.0, 839.67596
37800.0, 847.00934
38000.0, 848.29297
38200.0, 855.6361
38400.0, 856.9113
38600.0, 864.2642
38800.0, 865.5311
39000.0, 872.8937
39200.0, 874.1523
39400.0, 881.52405
39600.0, 882.7745
39800.0, 890.1554
40000.0, 897.5452
40200.0, 898.7876
40400.0, 906.1863
40600.0, 907.4206
40800.0, 914.82776
41000.0, 916.054
41200.0, 923.46985
41400.0, 924.68787
41600.0, 932.11194
41800.0, 933.3221
42000.0, 940.7543
42200.0, 941.9563
42400.0, 949.39667
42600.0, 950.59076
42800.0, 958.0388
43000.0, 959.22516
43200.0, 966.6809
43400.0, 967.8593
43600.0, 975.3225
43800.0, 976.49316
44000.0, 983.9638
44200.0, 991.4417
44400.0, 992.60443
44600.0, 1000.08936
44800.0, 1001.2445
45000.0, 1008.7364
45200.0, 1009.8837
45400.0, 1017.3823
45600.0, 1018.52203
45800.0, 1026.0272
46000.0, 1027.1594
46200.0, 1034.6711
46400.0, 1035.7957
46600.0, 1043.3136
46800.0, 1044.4308
47000.0, 1051.955
47200.0, 1053.0646
47400.0, 1060.595
47600.0, 1061.6971
47800.0, 1069.2332
48000.0, 1070.328
48200.0, 1077.87
48400.0, 1085.4181
48600.0, 1086.505
48800.0, 1094.0587
49000.0, 1095.1382
49200.0, 1102.6974
49400.0, 1103.7695
49600.0, 1111.3341
49800.0, 1112.3989
50000.0, 1119.9685
50200.0, 1121.0262
50400.0, 1128.6011
50600.0, 1129.6515
50800.0, 1137.2312
51000.0, 1138.2744
51200.0, 1145.8588
51400.0, 1146.8951
51600.0, 1154.4843
51800.0, 1155.5132
52000.0, 1163.107
52200.0, 1164.129
52400.0, 1171.7274
52600.0, 1179.3308
52800.0, 1180.345
53000.0, 1187.9526
53200.0, 1188.9598
53400.0, 1196.5717
53600.0, 1197.572
53800.0, 1205.1877
54000.0, 1206.1812
54200.0, 1213.801
54400.0, 1214.7875
54600.0, 1222.4113
54800.0, 1223.3906
55000.0, 1231.0181
55200.0, 1231.9907
55400.0, 1239.622
55600.0, 1240.5878
55800.0, 1248.2225
56000.0, 1249.1815
56200.0, 1256.8198
56400.0, 1264.4623
56600.0, 1265.4136
56800.0, 1273.0594
57000.0, 1274.004
57200.0, 1281.653
57400.0, 1282.591
57600.0, 1290.2429
57800.0, 1291.1744
58000.0, 1298.8295
58200.0, 1299.754
58400.0, 1307.412
58600.0, 1308.33
58800.0, 1315.991
59000.0, 1316.9023
59200.0, 1324.5659
59400.0, 1325.4708
59600.0, 1333.1371
59800.0, 1334.0354
60000.0, 1341.7042
60200.0, 1349.3767
60400.0, 1350.2676
60600.0, 1357.9424
60800.0, 1358.8265
61000.0, 1366.504
61200.0, 1367.3817
61400.0, 1375.0614
61600.0, 1375.9327
61800.0, 1383.6146
62000.0, 1384.4795
62200.0, 1392.1635
62400.0, 1393.022
62600.0, 1400.7078
62800.0, 1401.5602
63000.0, 1409.248
63200.0, 1410.094
63400.0, 1417.7838
63600.0, 1425.4767
63800.0, 1426.3152
64000.0, 1434.0098
64200.0, 1434.8419
64400.0, 1442.5382
64600.0, 1443.3643
64800.0, 1451.0621
65000.0, 1451.8818
65200.0, 1459.5813
65400.0, 1460.3948
65600.0, 1468.0958
65800.0, 1468.9032
66000.0, 1476.6056
66200.0, 1477.4069
66400.0, 1485.1106
66600.0, 1492.817
66800.0, 1493.611
67000.0, 1501.3182
67200.0, 1502.1062
67400.0, 1509.8148
67600.0, 1510.5967
67800.0, 1518.3064
68000.0, 1519.0819
68200.0, 1526.793
68400.0, 1527.5626
68600.0, 1535.2744
68800.0, 1536.038
69000.0, 1543.751
69200.0, 1544.5087
69400.0, 1552.2224
69600.0, 1559.938
69800.0, 1560.6886
70000.0, 1568.4052
70200.0, 1569.1497
70400.0, 1576.867
70600.0, 1577.6055
70800.0, 1585.3235
71000.0, 1586.0563
71200.0, 1593.7748
71400.0, 1594.5016
71600.0, 1602.2207
71800.0, 1602.9418
72000.0, 1610.6614
72200.0, 1611.3766
72400.0, 1619.0966
72600.0, 1626.8182
72800.0, 1627.5264
73000.0, 1635.2484
73200.0, 1635.951
73400.0, 1643.6733
73600.0, 1644.3699
73800.0, 1652.0924
74000.0, 1652.7833
74200.0, 1660.5061
74400.0, 1661.1915
74600.0, 1668.9142
74800.0, 1669.5938
75000.0, 1677.317
75200.0, 1685.0413
75400.0, 1685.7139
75600.0, 1693.4382
75800.0, 1694.1052
76000.0, 1701.8297
76200.0, 1702.4912
76400.0, 1710.2152
76600.0, 1710.8712
76800.0, 1718.5953
77000.0, 1719.2457
77200.0, 1726.9694
77400.0, 1727.6143
77600.0, 1735.338
77800.0, 1743.0627
78000.0, 1743.7004
78200.0, 1751.4253
78400.0, 1752.0575
78600.0, 1759.7817
78800.0, 1760.4086
79000.0, 1768.1324
79200.0, 1768.7537
79400.0, 1776.4773
79600.0, 1777.0931
79800.0, 1784.8159
80000.0, 1792.5399
80200.0, 1793.1492
80400.0, 1800.8724
80600.0, 1801.4761
80800.0, 1809.1991
81000.0, 1809.7974
81200.0, 1817.5195
81400.0, 1818.1124
81600.0, 1825.834
81800.0, 1826.4219
82000.0, 1834.1426
82200.0, 1841.864
82400.0, 1842.445
82600.0, 1850.1656
82800.0, 1850.7415
83000.0, 1858.4613
83200.0, 1859.0317
83400.0, 1866.751
83600.0, 1867.3163
83800.0, 1875.0342
84000.0, 1875.5944
84200.0, 1883.3118
84400.0, 1891.0293
84600.0, 1891.5826
84800.0, 1899.2997
85000.0, 1899.8479
85200.0, 1907.5636
85400.0, 1908.1068
85600.0, 1915.8215
85800.0, 1916.3594
86000.0, 1924.073
86200.0, 1924.6058
86400.0, 1932.3186
86600.0, 1940.0316
86800.0, 1940.5577
87000.0, 1948.2695
87200.0, 1948.7906
87400.0, 1956.5015
87600.0, 1957.0175
87800.0, 1964.7268
88000.0, 1965.238
88200.0, 1972.946
88400.0, 1973.4521
88600.0, 1981.159
88800.0, 1988.8658
89000.0, 1989.3656
89200.0, 1997.0714
89400.0, 1997.5659
89600.0, 2005.2704
89800.0, 2005.7599
90000.0, 2013.4628
90200.0, 2013.9475
90400.0, 2021.6492
90600.0, 2029.351
90800.0, 2029.829
91000.0, 2037.5292
91200.0, 2038.0026
91400.0, 2045.7012
91600.0, 2046.1697
91800.0, 2053.867
92000.0, 2054.3303
92200.0, 2062.0256
92400.0, 2069.7214
92600.0, 2070.1787
92800.0, 2077.8726
93000.0, 2078.325
93200.0, 2086.0173
93400.0, 2086.4648
93600.0, 2094.1555
93800.0, 2094.5984
94000.0, 2102.2874
94200.0, 2109.9763
94400.0, 2110.4126
94600.0, 2118.0999
94800.0, 2118.5315
95000.0, 2126.217
95200.0, 2126.644
95400.0, 2134.3276
95600.0, 2134.7498
95800.0, 2142.4314
96000.0, 2150.113
96200.0, 2150.5293
96400.0, 2158.209
96600.0, 2158.6204
96800.0, 2166.298
97000.0, 2166.705
97200.0, 2174.3809
97400.0, 2174.7832
97600.0, 2182.457
97800.0, 2190.131
98000.0, 2190.5269
98200.0, 2198.1987
98400.0, 2198.5898
98600.0, 2206.2598
98800.0, 2206.6465
99000.0, 2214.3142
99200.0, 2221.982
99400.0, 2222.3625
99600.0, 2230.0278
99800.0, 2230.4038
100000.0, 2238.0671
