Energy (in eV), SEEP yield of material sc2k-NASCAP at isotropic incidence
   X,       Y
0.0, 0.0
200.0, 0.20923153
400.0, 0.29969186
600.0, 0.36892563
800.0, 0.42714223
1000.0, 0.4783004
1200.0, 0.524432
1400.0, 0.5667452
1600.0, 0.60602796
1800.0, 0.64282835
2000.0, 0.6775453
2200.0, 0.7104807
2400.0, 0.74186903
2600.0, 0.771897
2800.0, 0.80071634
3000.0, 0.82845163
3200.0, 0.855208
3400.0, 0.8810738
3600.0, 0.9061244
3800.0, 0.9304258
4000.0, 0.95403457
4200.0, 0.9770012
4400.0, 0.99936926
4600.0, 1.0211782
4800.0, 1.0424632
5000.0, 1.0632552
5200.0, 1.0835834
5400.0, 1.1034727
5600.0, 1.1229469
5800.0, 1.142027
6000.0, 1.1607327
6200.0, 1.179082
6400.0, 1.1970913
6600.0, 1.2147758
6800.0, 1.2321492
7000.0, 1.2492251
7200.0, 1.2660156
7400.0, 1.2825321
7600.0, 1.298785
7800.0, 1.3147839
8000.0, 1.3305386
8200.0, 1.3460579
8400.0, 1.3613495
8600.0, 1.3764213
8800.0, 1.3912808
9000.0, 1.4059348
9200.0, 1.4203894
9400.0, 1.4346514
9600.0, 1.4487262
9800.0, 1.4626192
10000.0, 1.476336
10200.0, 1.4898815
10400.0, 1.5032605
10600.0, 1.5164776
10800.0, 1.5295373
11000.0, 1.5424434
11200.0, 1.5552
11400.0, 1.5678104
11600.0, 1.5802789
11800.0, 1.592609
12000.0, 1.6048037
12200.0, 1.6168664
12400.0, 1.6287996
12600.0, 1.6406069
12800.0, 1.6522908
13000.0, 1.6638546
13200.0, 1.6753
13400.0, 1.6866301
13600.0, 1.6978474
13800.0, 1.7089539
14000.0, 1.7199522
14200.0, 1.7308443
14400.0, 1.7416321
14600.0, 1.7523181
14800.0, 1.7629043
15000.0, 1.7733926
15200.0, 1.783784
15400.0, 1.7940813
15600.0, 1.8042855
15800.0, 1.814399
16000.0, 1.8244224
16200.0, 1.8343587
16400.0, 1.8442087
16600.0, 1.8539736
16800.0, 1.8636554
17000.0, 1.873255
17200.0, 1.8827741
17400.0, 1.8922137
17600.0, 1.9015757
17800.0, 1.9108605
18000.0, 1.9200702
18200.0, 1.9292053
18400.0, 1.9382672
18600.0, 1.9472573
18800.0, 1.9561762
19000.0, 1.9650257
19200.0, 1.9738059
19400.0, 1.9825183
19600.0, 1.9911638
19800.0, 1.9997438
20000.0, 2.0082583
20200.0, 2.0167093
20400.0, 2.0250971
20600.0, 2.0334227
20800.0, 2.0416868
21000.0, 2.0498903
21200.0, 2.0580344
21400.0, 2.0661197
21600.0, 2.0741463
21800.0, 2.082116
22000.0, 2.0900288
22200.0, 2.097886
22400.0, 2.105688
22600.0, 2.1134355
22800.0, 2.121129
23000.0, 2.1287696
23200.0, 2.136358
23400.0, 2.1438942
23600.0, 2.151379
23800.0, 2.1588142
24000.0, 2.1661985
24200.0, 2.1735342
24400.0, 2.1808205
24600.0, 2.1880586
24800.0, 2.1952496
25000.0, 2.202393
25200.0, 2.2094903
25400.0, 2.2165415
25600.0, 2.2235467
25800.0, 2.2305074
26000.0, 2.2374237
26200.0, 2.2442958
26400.0, 2.2511246
26600.0, 2.25791
26800.0, 2.2646532
27000.0, 2.271354
27200.0, 2.2780132
27400.0, 2.284631
27600.0, 2.2912083
27800.0, 2.2977448
28000.0, 2.3042417
28200.0, 2.310699
28400.0, 2.317117
28600.0, 2.3234966
28800.0, 2.3298376
29000.0, 2.3361409
29200.0, 2.342406
29400.0, 2.3486345
29600.0, 2.3548262
29800.0, 2.3609815
30000.0, 2.3671
30200.0, 2.373183
30400.0, 2.3792307
30600.0, 2.3852432
30800.0, 2.391221
31000.0, 2.397164
31200.0, 2.4030733
31400.0, 2.408949
31600.0, 2.4147906
31800.0, 2.4205997
32000.0, 2.4263752
32200.0, 2.432119
32400.0, 2.43783
32600.0, 2.4435086
32800.0, 2.449156
33000.0, 2.454772
33200.0, 2.4603572
33400.0, 2.465911
33600.0, 2.4714346
33800.0, 2.4769275
34000.0, 2.4823902
34200.0, 2.4878232
34400.0, 2.493227
34600.0, 2.4986014
34800.0, 2.5039468
35000.0, 2.509263
35200.0, 2.5145507
35400.0, 2.5198107
35600.0, 2.5250418
35800.0, 2.5302458
36000.0, 2.5354218
36200.0, 2.5405705
36400.0, 2.545692
36600.0, 2.5507865
36800.0, 2.5558543
37000.0, 2.5608954
37200.0, 2.5659106
37400.0, 2.5708992
37600.0, 2.575863
37800.0, 2.5808
38000.0, 2.5857117
38200.0, 2.5905986
38400.0, 2.5954604
38600.0, 2.6002965
38800.0, 2.605109
39000.0, 2.6098964
39200.0, 2.6146593
39400.0, 2.6193986
39600.0, 2.6241133
39800.0, 2.6288044
40000.0, 2.6334722
40200.0, 2.6381161
40400.0, 2.6427374
40600.0, 2.6473358
40800.0, 2.651911
41000.0, 2.6564631
41200.0, 2.6609926
41400.0, 2.6655004
41600.0, 2.6699853
41800.0, 2.6744483
42000.0, 2.67889
42200.0, 2.6833093
42400.0, 2.6877072
42600.0, 2.6920834
42800.0, 2.6964386
43000.0, 2.7007728
43200.0, 2.7050865
43400.0, 2.709378
43600.0, 2.71365
43800.0, 2.7179008
44000.0, 2.7221315
44200.0, 2.7263417
44400.0, 2.730532
44600.0, 2.734702
44800.0, 2.7388525
45000.0, 2.7429829
45200.0, 2.7470944
45400.0, 2.7511854
45600.0, 2.7552576
45800.0, 2.759311
46000.0, 2.763345
46200.0, 2.76736
46400.0, 2.771356
46600.0, 2.7753341
46800.0, 2.7792935
47000.0, 2.783234
47200.0, 2.787156
47400.0, 2.79106
47600.0, 2.794946
47800.0, 2.798814
48000.0, 2.802664
48200.0, 2.806497
48400.0, 2.8103116
48600.0, 2.814109
48800.0, 2.8178892
49000.0, 2.8216517
49200.0, 2.8253973
49400.0, 2.829126
49600.0, 2.8328373
49800.0, 2.8365319
50000.0, 2.84021
50200.0, 2.843871
50400.0, 2.8475163
50600.0, 2.8511443
50800.0, 2.8547566
51000.0, 2.8583524
51200.0, 2.8619316
51400.0, 2.865496
51600.0, 2.8690434
51800.0, 2.8725753
52000.0, 2.8760917
52200.0, 2.8795922
52400.0, 2.8830771
52600.0, 2.8865461
52800.0, 2.8900003
53000.0, 2.893439
53200.0, 2.896863
53400.0, 2.9002712
53600.0, 2.9036653
53800.0, 2.907044
54000.0, 2.9104078
54200.0, 2.9137568
54400.0, 2.9170914
54600.0, 2.9204106
54800.0, 2.9237163
55000.0, 2.9270077
55200.0, 2.9302847
55400.0, 2.9335465
55600.0, 2.9367952
55800.0, 2.9400294
56000.0, 2.9432497
56200.0, 2.946456
56400.0, 2.9496489
56600.0, 2.9528272
56800.0, 2.9559922
57000.0, 2.9591439
57200.0, 2.9622822
57400.0, 2.9654067
57600.0, 2.9685173
57800.0, 2.9716158
58000.0, 2.9747005
58200.0, 2.9777715
58400.0, 2.9808304
58600.0, 2.983876
58800.0, 2.9869084
59000.0, 2.9899282
59200.0, 2.9929354
59400.0, 2.9959297
59600.0, 2.9989114
59800.0, 3.00188
60000.0, 3.0048363
60200.0, 3.0077803
60400.0, 3.0107124
60600.0, 3.0136318
60800.0, 3.0165389
61000.0, 3.0194337
61200.0, 3.0223167
61400.0, 3.0251875
61600.0, 3.0280464
61800.0, 3.0308933
62000.0, 3.033728
62200.0, 3.0365512
62400.0, 3.039363
62600.0, 3.042163
62800.0, 3.0449512
63000.0, 3.0477273
63200.0, 3.0504932
63400.0, 3.053247
63600.0, 3.0559893
63800.0, 3.0587208
64000.0, 3.0614402
64200.0, 3.064149
64400.0, 3.0668468
64600.0, 3.0695338
64800.0, 3.0722086
65000.0, 3.0748734
65200.0, 3.0775273
65400.0, 3.0801702
65600.0, 3.082802
65800.0, 3.0854232
66000.0, 3.0880334
66200.0, 3.0906339
66400.0, 3.093223
66600.0, 3.095802
66800.0, 3.0983706
67000.0, 3.1009288
67200.0, 3.103476
67400.0, 3.1060135
67600.0, 3.1085403
67800.0, 3.1110573
68000.0, 3.1135638
68200.0, 3.1160605
68400.0, 3.118547
68600.0, 3.121024
68800.0, 3.1234899
69000.0, 3.125947
69200.0, 3.1283934
69400.0, 3.13083
69600.0, 3.1332574
69800.0, 3.1356747
70000.0, 3.138083
70200.0, 3.140481
70400.0, 3.1428697
70600.0, 3.1452487
70800.0, 3.1476185
71000.0, 3.1499782
71200.0, 3.152329
71400.0, 3.1546702
71600.0, 3.1570024
71800.0, 3.1593251
72000.0, 3.1616387
72200.0, 3.163943
72400.0, 3.166239
72600.0, 3.1685255
72800.0, 3.1708019
73000.0, 3.17307
73200.0, 3.1753294
73400.0, 3.1775794
73600.0, 3.179821
73800.0, 3.1820536
74000.0, 3.1842773
74200.0, 3.1864924
74400.0, 3.1886985
74600.0, 3.1908965
74800.0, 3.1930852
75000.0, 3.195266
75200.0, 3.1974385
75400.0, 3.1996014
75600.0, 3.2017558
75800.0, 3.203903
76000.0, 3.2060406
76200.0, 3.208171
76400.0, 3.2102919
76600.0, 3.212405
76800.0, 3.21451
77000.0, 3.2166066
77200.0, 3.2186954
77400.0, 3.2207754
77600.0, 3.222848
77800.0, 3.224912
78000.0, 3.2269688
78200.0, 3.2290168
78400.0, 3.231057
78600.0, 3.2330892
78800.0, 3.2351143
79000.0, 3.237131
79200.0, 3.2391396
79400.0, 3.2411406
79600.0, 3.243134
79800.0, 3.2451196
80000.0, 3.2470973
80200.0, 3.2490675
80400.0, 3.251031
80600.0, 3.2529857
80800.0, 3.2549336
81000.0, 3.2568738
81200.0, 3.2588067
81400.0, 3.2607315
81600.0, 3.2626495
81800.0, 3.2645602
82000.0, 3.2664628
82200.0, 3.2683592
82400.0, 3.2702477
82600.0, 3.2721293
82800.0, 3.274003
83000.0, 3.2758698
83200.0, 3.2777297
83400.0, 3.2795825
83600.0, 3.2814279
83800.0, 3.2832665
84000.0, 3.2850978
84200.0, 3.2869225
84400.0, 3.28874
84600.0, 3.2905507
84800.0, 3.2923543
85000.0, 3.2941515
85200.0, 3.295941
85400.0, 3.297724
85600.0, 3.2995012
85800.0, 3.3012705
86000.0, 3.3030334
86200.0, 3.3047895
86400.0, 3.3065395
86600.0, 3.308282
86800.0, 3.3100185
87000.0, 3.3117473
87200.0, 3.3134708
87400.0, 3.3151877
87600.0, 3.3168972
87800.0, 3.3186007
88000.0, 3.3202982
88200.0, 3.3219888
88400.0, 3.3236728
88600.0, 3.325351
88800.0, 3.327022
89000.0, 3.3286874
89200.0, 3.330346
89400.0, 3.3319988
89600.0, 3.3336456
89800.0, 3.3352857
90000.0, 3.3369195
90200.0, 3.3385482
90400.0, 3.3401692
90600.0, 3.3417845
90800.0, 3.3433938
91000.0, 3.3449972
91200.0, 3.3465948
91400.0, 3.348186
91600.0, 3.3497715
91800.0, 3.3513508
92000.0, 3.352924
92200.0, 3.3544917
92400.0, 3.356053
92600.0, 3.3576093
92800.0, 3.359159
93000.0, 3.360703
93200.0, 3.362241
93400.0, 3.363774
93600.0, 3.3653004
93800.0, 3.366821
94000.0, 3.3683364
94200.0, 3.3698456
94400.0, 3.37135
94600.0, 3.372848
94800.0, 3.3743405
95000.0, 3.3758283
95200.0, 3.3773093
95400.0, 3.3787854
95600.0, 3.3802552
95800.0, 3.3817205
96000.0, 3.38318
96200.0, 3.384634
96400.0, 3.3860824
96600.0, 3.387525
96800.0, 3.388963
97000.0, 3.3903956
97200.0, 3.3918216
97400.0, 3.3932436
97600.0, 3.39466
97800.0, 3.3960705
98000.0, 3.3974762
98200.0, 3.3988764
98400.0, 3.400272
98600.0, 3.401662
98800.0, 3.4030464
99000.0, 3.4044266
99200.0, 3.4058006
99400.0, 3.4071698
99600.0, 3.4085338
99800.0, 3.4098933
100000.0, 3.411247
