Energy (in eV), SEEP yield of material np2k-NASCAP at incidence 90.0 degree
   X,       Y
0.0, 0.0
200.0, 3.3486075
400.0, 6.3052
600.0, 9.639097
800.0, 12.225906
1000.0, 16.131334
1200.0, 19.003344
1400.0, 21.960987
1600.0, 25.007065
1800.0, 28.142
2000.0, 31.364992
2200.0, 34.674587
2400.0, 38.06902
2600.0, 39.567917
2800.0, 43.054264
3000.0, 46.62226
3200.0, 50.26964
3400.0, 51.744495
3600.0, 55.482246
3800.0, 59.295124
4000.0, 63.181046
4200.0, 64.65152
4400.0, 68.62288
4600.0, 72.66323
4800.0, 74.12354
5000.0, 78.2458
5200.0, 79.68545
5400.0, 83.887985
5600.0, 88.15366
5800.0, 89.59096
6000.0, 93.93312
6200.0, 95.355225
6400.0, 99.77204
6600.0, 101.18077
6800.0, 105.670395
7000.0, 110.21628
7200.0, 111.62783
7400.0, 116.243034
7600.0, 117.643776
7800.0, 122.326515
8000.0, 123.71746
8200.0, 128.46605
8400.0, 129.84804
8600.0, 134.66075
8800.0, 136.03448
9000.0, 140.90974
9200.0, 142.27583
9400.0, 147.21202
9600.0, 148.57095
9800.0, 153.56651
10000.0, 154.9188
10200.0, 159.97226
10400.0, 161.31818
10600.0, 166.4281
10800.0, 167.76805
11000.0, 169.09007
11200.0, 174.26723
11400.0, 175.58405
11600.0, 180.81467
11800.0, 182.1265
12000.0, 187.40921
12200.0, 188.7162
12400.0, 194.04976
12600.0, 195.35207
12800.0, 200.73529
13000.0, 202.03302
13200.0, 203.31541
13400.0, 208.75797
13600.0, 210.03625
13800.0, 215.52588
14000.0, 216.80011
14200.0, 222.33571
14400.0, 223.60591
14600.0, 224.86212
14800.0, 230.45271
15000.0, 231.70526
15200.0, 237.33942
15400.0, 238.5883
15600.0, 244.2651
15800.0, 245.51036
16000.0, 246.74258
16200.0, 252.47043
16400.0, 253.69928
16600.0, 259.46762
16800.0, 260.69305
17000.0, 261.90616
17200.0, 267.72302
17400.0, 268.93286
17600.0, 274.78824
17800.0, 275.9949
18000.0, 281.8879
18200.0, 283.0913
18400.0, 284.28305
18600.0, 290.22122
18800.0, 291.40988
19000.0, 297.38388
19200.0, 298.5694
19400.0, 299.74387
19600.0, 305.76077
19800.0, 306.93216
20000.0, 312.98322
20200.0, 314.15152
20400.0, 315.30927
20600.0, 321.40115
20800.0, 322.5559
21000.0, 328.68033
21200.0, 329.83206
21400.0, 330.97354
21600.0, 337.13696
21800.0, 338.2755
22000.0, 339.40417
22200.0, 345.6054
22400.0, 346.73117
22600.0, 352.96268
22800.0, 354.0855
23000.0, 355.1988
23200.0, 361.46637
23400.0, 362.57675
23600.0, 368.87317
23800.0, 369.98065
24000.0, 371.0788
24200.0, 377.40967
24400.0, 378.50497
24600.0, 379.59128
24800.0, 385.95578
25000.0, 387.03918
25200.0, 393.43042
25400.0, 394.511
25600.0, 395.5828
25800.0, 402.00607
26000.0, 403.075
26200.0, 409.52386
26400.0, 410.5899
26600.0, 411.6475
26800.0, 418.1269
27000.0, 419.18152
27200.0, 420.22794
27400.0, 426.73715
27600.0, 427.78064
27800.0, 434.31372
28000.0, 435.35428
28200.0, 436.38684
28400.0, 442.94833
28600.0, 443.97803
28800.0, 444.99985
29000.0, 451.58896
29200.0, 452.60785
29400.0, 459.21933
29600.0, 460.23523
29800.0, 461.24362
30000.0, 467.8814
30200.0, 468.88684
30400.0, 469.88474
30600.0, 476.5484
30800.0, 477.54337
31000.0, 484.22775
31200.0, 485.21973
31400.0, 486.20447
31600.0, 492.91354
31800.0, 493.8953
32000.0, 494.8699
32200.0, 501.60294
32400.0, 502.57455
32600.0, 503.53918
32800.0, 510.29572
33000.0, 511.2574
33200.0, 518.0328
33400.0, 518.99133
33600.0, 519.94324
33800.0, 526.74097
34000.0, 527.68976
34200.0, 528.63196
34400.0, 535.45154
34600.0, 536.3907
34800.0, 543.22784
35000.0, 544.164
35200.0, 545.09357
35400.0, 551.9516
35600.0, 552.87823
35800.0, 553.7983
36000.0, 560.67664
36200.0, 561.5937
36400.0, 562.50446
36600.0, 569.40265
36800.0, 570.3104
37000.0, 577.2246
37200.0, 578.1294
37400.0, 579.02783
37600.0, 585.96106
37800.0, 586.85657
38000.0, 587.74585
38200.0, 594.69745
38400.0, 595.5838
38600.0, 602.55054
38800.0, 603.4338
39000.0, 604.31104
39200.0, 611.29535
39400.0, 612.16956
39600.0, 613.03784
39800.0, 620.03937
40000.0, 620.90466
40200.0, 621.7641
40400.0, 628.7824
40600.0, 629.6388
40800.0, 636.6708
41000.0, 637.5241
41200.0, 638.3717
41400.0, 645.4198
41600.0, 646.2643
41800.0, 647.10333
42000.0, 654.16693
42200.0, 655.0028
42400.0, 655.8332
42600.0, 662.91205
42800.0, 663.7394
43000.0, 670.8307
43200.0, 671.6549
43400.0, 672.47375
43600.0, 679.57965
43800.0, 680.3953
44000.0, 681.20575
44200.0, 688.32574
44400.0, 689.133
44600.0, 689.93506
44800.0, 697.06903
45000.0, 697.868
45200.0, 705.0132
45400.0, 705.809
45600.0, 706.5997
45800.0, 713.7582
46000.0, 714.5458
46200.0, 715.3283
46400.0, 722.49945
46600.0, 723.2788
46800.0, 724.0533
47000.0, 731.2371
47200.0, 732.0085
47400.0, 739.2026
47600.0, 739.97076
47800.0, 740.7338
48000.0, 747.94006
48200.0, 748.7001
48400.0, 749.4554
48600.0, 756.67316
48800.0, 757.42535
49000.0, 758.17267
49200.0, 765.40173
49400.0, 766.146
49600.0, 773.3846
49800.0, 774.1257
50000.0, 774.862
50200.0, 782.11145
50400.0, 782.84467
50600.0, 783.57336
50800.0, 790.83325
51000.0, 791.5588
51200.0, 792.27966
51400.0, 799.54974
51600.0, 800.2675
51800.0, 807.54626
52000.0, 808.2609
52200.0, 808.97107
52400.0, 816.2596
52600.0, 816.96655
52800.0, 817.6692
53000.0, 824.96716
53200.0, 825.66656
53400.0, 826.3617
53600.0, 833.66895
53800.0, 834.3609
54000.0, 841.67596
54200.0, 842.3647
54400.0, 843.0493
54600.0, 850.373
54800.0, 851.0544
55000.0, 851.73157
55200.0, 859.0639
55400.0, 859.7378
55600.0, 860.4078
55800.0, 867.7483
56000.0, 868.415
56200.0, 875.7628
56400.0, 876.42633
56600.0, 877.08575
56800.0, 884.4413
57000.0, 885.09753
57200.0, 885.74976
57400.0, 893.11304
57600.0, 893.76215
57800.0, 901.1322
58000.0, 901.7781
58200.0, 902.4199
58400.0, 909.7971
58600.0, 910.436
58800.0, 911.0707
59000.0, 918.45496
59200.0, 919.08673
59400.0, 919.71436
59600.0, 927.10565
59800.0, 927.7302
60000.0, 935.1273
60200.0, 935.74884
60400.0, 936.3665
60600.0, 943.7701
60800.0, 944.38464
61000.0, 944.9955
61200.0, 952.4053
61400.0, 953.01294
61600.0, 953.6167
61800.0, 961.03284
62000.0, 961.6336
62200.0, 969.05493
62400.0, 969.65265
62600.0, 970.2465
62800.0, 977.6737
63000.0, 978.26447
63200.0, 978.85175
63400.0, 986.2845
63600.0, 986.8686
63800.0, 994.30634
64000.0, 994.88727
64200.0, 995.4645
64400.0, 1002.90765
64600.0, 1003.48193
64800.0, 1004.0525
65000.0, 1011.5007
65200.0, 1012.06824
65400.0, 1012.63226
65600.0, 1020.0854
65800.0, 1020.64636
66000.0, 1028.1041
66200.0, 1028.6619
66400.0, 1029.2163
66600.0, 1036.6785
66800.0, 1037.2299
67000.0, 1037.7777
67200.0, 1045.2444
67400.0, 1045.7892
67600.0, 1053.2601
67800.0, 1053.8018
68000.0, 1054.3401
68200.0, 1061.8152
68400.0, 1062.3505
68600.0, 1062.8824
68800.0, 1070.3615
69000.0, 1070.8903
69200.0, 1071.4159
69400.0, 1078.899
69600.0, 1079.4215
69800.0, 1086.9082
70000.0, 1087.4276
70200.0, 1087.9438
70400.0, 1095.4341
70600.0, 1095.9473
70800.0, 1096.4574
71000.0, 1103.951
71200.0, 1104.458
71400.0, 1111.9551
71600.0, 1112.459
71800.0, 1112.9597
72000.0, 1120.4602
72200.0, 1120.9578
72400.0, 1121.4523
72600.0, 1128.956
72800.0, 1129.4474
73000.0, 1136.9539
73200.0, 1137.4423
73400.0, 1137.9277
73600.0, 1145.4373
73800.0, 1145.9194
74000.0, 1146.3988
74200.0, 1153.911
74400.0, 1154.3875
74600.0, 1161.9025
74800.0, 1162.3757
75000.0, 1162.8458
75200.0, 1170.3634
75400.0, 1170.8306
75600.0, 1171.2948
75800.0, 1178.815
76000.0, 1179.2761
76200.0, 1186.7988
76400.0, 1187.257
76600.0, 1187.7124
76800.0, 1195.2372
77000.0, 1195.6895
77200.0, 1196.1387
77400.0, 1203.6658
77600.0, 1204.1123
77800.0, 1211.6414
78000.0, 1212.0847
78200.0, 1212.5253
78400.0, 1220.0564
78600.0, 1220.4939
78800.0, 1220.9286
79000.0, 1228.4617
79200.0, 1228.8933
79400.0, 1236.4283
79600.0, 1236.857
79800.0, 1237.2828
80000.0, 1244.8195
80200.0, 1245.2424
80400.0, 1245.6628
80600.0, 1253.2009
80800.0, 1253.6183
81000.0, 1261.1582
81200.0, 1261.5725
81400.0, 1261.9841
81600.0, 1269.5251
81800.0, 1269.934
82000.0, 1270.34
82200.0, 1277.8826
82400.0, 1278.2856
82600.0, 1285.8293
82800.0, 1286.2296
83000.0, 1286.6272
83200.0, 1294.1722
83400.0, 1294.5669
83600.0, 1302.1133
83800.0, 1302.5049
84000.0, 1302.8939
84200.0, 1310.4413
84400.0, 1310.8274
84600.0, 1311.2108
84800.0, 1318.7592
85000.0, 1319.1396
85200.0, 1326.6891
85400.0, 1327.0668
85600.0, 1327.442
85800.0, 1334.992
86000.0, 1335.3643
86200.0, 1335.7339
86400.0, 1343.2848
86600.0, 1343.6517
86800.0, 1351.2032
87000.0, 1351.5673
87200.0, 1351.9287
87400.0, 1359.4808
87600.0, 1359.8394
87800.0, 1367.3923
88000.0, 1367.7482
88200.0, 1368.1016
88400.0, 1375.6548
88600.0, 1376.0051
88800.0, 1376.3531
89000.0, 1383.9066
89200.0, 1384.2518
89400.0, 1391.8059
89600.0, 1392.1483
89800.0, 1392.4882
90000.0, 1400.0424
90200.0, 1400.3794
90400.0, 1400.7141
90600.0, 1408.2686
90800.0, 1408.6002
91000.0, 1416.155
91200.0, 1416.4841
91400.0, 1416.8107
91600.0, 1424.3655
91800.0, 1424.6895
92000.0, 1432.2445
92200.0, 1432.5654
92400.0, 1432.8842
92600.0, 1440.4391
92800.0, 1440.7549
93000.0, 1441.0686
93200.0, 1448.6233
93400.0, 1448.9341
93600.0, 1456.489
93800.0, 1456.7969
94000.0, 1457.1025
94200.0, 1464.6572
94400.0, 1464.9601
94600.0, 1472.5146
94800.0, 1472.815
95000.0, 1473.1129
95200.0, 1480.6669
95400.0, 1480.962
95600.0, 1488.5161
95800.0, 1488.8085
96000.0, 1489.0988
96200.0, 1496.6522
96400.0, 1496.9396
96600.0, 1497.225
96800.0, 1504.7777
97000.0, 1505.0604
97200.0, 1512.613
97400.0, 1512.8928
97600.0, 1513.1704
97800.0, 1520.7224
98000.0, 1520.9972
98200.0, 1528.5488
98400.0, 1528.8208
98600.0, 1529.091
98800.0, 1536.6417
99000.0, 1536.909
99200.0, 1544.4597
99400.0, 1544.7242
99600.0, 1544.9868
99800.0, 1552.5363
100000.0, 1552.7959
