Energy (in eV), SEEP yield of material np2k-NASCAP at isotropic incidence
   X,       Y
0.0, 0.0
200.0, 0.38232517
400.0, 0.55110943
600.0, 0.68008024
800.0, 0.7883528
1000.0, 0.8833438
1200.0, 0.9688625
1400.0, 1.0471749
1600.0, 1.1197608
1800.0, 1.1876489
2000.0, 1.2515894
2200.0, 1.3121495
2400.0, 1.3697714
2600.0, 1.4248058
2800.0, 1.4775391
3000.0, 1.5282061
3200.0, 1.5770049
3400.0, 1.6241026
3600.0, 1.6696421
3800.0, 1.7137477
4000.0, 1.7565261
4200.0, 1.7980729
4400.0, 1.8384717
4600.0, 1.8777964
4800.0, 1.9161137
5000.0, 1.9534831
5200.0, 1.9899584
5400.0, 2.0255897
5600.0, 2.0604198
5800.0, 2.0944898
6000.0, 2.127837
6200.0, 2.160496
6400.0, 2.192497
6600.0, 2.2238705
6800.0, 2.2546422
7000.0, 2.2848387
7200.0, 2.3144815
7400.0, 2.3435931
7600.0, 2.3721938
7800.0, 2.4003026
8000.0, 2.4279373
8200.0, 2.4551148
8400.0, 2.4818504
8600.0, 2.5081592
8800.0, 2.5340557
9000.0, 2.5595527
9200.0, 2.5846622
9400.0, 2.6093965
9600.0, 2.6337674
9800.0, 2.6577845
10000.0, 2.6814587
10200.0, 2.7048
10400.0, 2.727817
10600.0, 2.7505186
10800.0, 2.7729142
11000.0, 2.7950103
11200.0, 2.8168151
11400.0, 2.838336
11600.0, 2.8595805
11800.0, 2.8805554
12000.0, 2.9012656
12200.0, 2.9217193
12400.0, 2.941921
12600.0, 2.9618773
12800.0, 2.981594
13000.0, 3.0010755
13200.0, 3.0203276
13400.0, 3.0393543
13600.0, 3.0581617
13800.0, 3.0767548
14000.0, 3.0951355
14200.0, 3.1133099
14400.0, 3.1312816
14600.0, 3.1490552
14800.0, 3.1666343
15000.0, 3.1840227
15200.0, 3.2012234
15400.0, 3.2182407
15600.0, 3.2350774
15800.0, 3.2517374
16000.0, 3.2682238
16200.0, 3.2845392
16400.0, 3.300687
16600.0, 3.3166704
16800.0, 3.3324916
17000.0, 3.3481543
17200.0, 3.3636603
17400.0, 3.3790119
17600.0, 3.3942134
17800.0, 3.4092658
18000.0, 3.4241714
18200.0, 3.4389338
18400.0, 3.453554
18600.0, 3.4680347
18800.0, 3.4823785
19000.0, 3.4965868
19200.0, 3.5106626
19400.0, 3.524607
19600.0, 3.5384216
19800.0, 3.5521095
20000.0, 3.5656724
20200.0, 3.5791118
20400.0, 3.5924292
20600.0, 3.6056266
20800.0, 3.6187055
21000.0, 3.6316688
21200.0, 3.644517
21400.0, 3.657251
21600.0, 3.6698742
21800.0, 3.6823862
22000.0, 3.6947904
22200.0, 3.7070863
22400.0, 3.7192764
22600.0, 3.7313623
22800.0, 3.7433455
23000.0, 3.755227
23200.0, 3.767007
23400.0, 3.778689
23600.0, 3.7902722
23800.0, 3.801759
24000.0, 3.8131504
24200.0, 3.8244472
24400.0, 3.8356512
24600.0, 3.8467636
24800.0, 3.857785
25000.0, 3.868716
25200.0, 3.8795586
25400.0, 3.8903146
25600.0, 3.9009829
25800.0, 3.9115658
26000.0, 3.9220638
26200.0, 3.9324794
26400.0, 3.942812
26600.0, 3.9530628
26800.0, 3.963233
27000.0, 3.9733226
27200.0, 3.9833348
27400.0, 3.9932685
27600.0, 4.0031247
27800.0, 4.012904
28000.0, 4.022609
28200.0, 4.0322385
28400.0, 4.041795
28600.0, 4.0512776
28800.0, 4.0606885
29000.0, 4.0700283
29200.0, 4.0792966
29400.0, 4.0884953
29600.0, 4.0976253
29800.0, 4.1066866
30000.0, 4.1156793
30200.0, 4.124606
30400.0, 4.133466
30600.0, 4.142259
30800.0, 4.1509886
31000.0, 4.159653
31200.0, 4.1682544
31400.0, 4.1767926
31600.0, 4.1852684
31800.0, 4.1936812
32000.0, 4.202034
32200.0, 4.210326
32400.0, 4.218558
32600.0, 4.2267303
32800.0, 4.2348437
33000.0, 4.242899
33200.0, 4.250897
33400.0, 4.2588363
33600.0, 4.266721
33800.0, 4.274548
34000.0, 4.2823205
34200.0, 4.290037
34400.0, 4.2976995
34600.0, 4.3053083
34800.0, 4.312863
35000.0, 4.3203654
35200.0, 4.3278146
35400.0, 4.3352118
35600.0, 4.342558
35800.0, 4.3498526
36000.0, 4.3570967
36200.0, 4.3642898
36400.0, 4.3714337
36600.0, 4.378529
36800.0, 4.3855743
37000.0, 4.392572
37200.0, 4.3995214
37400.0, 4.4064226
37600.0, 4.4132776
37800.0, 4.4200854
38000.0, 4.426847
38200.0, 4.4335623
38400.0, 4.4402328
38600.0, 4.4468575
38800.0, 4.4534373
39000.0, 4.459972
39200.0, 4.466464
39400.0, 4.472913
39600.0, 4.479316
39800.0, 4.485678
40000.0, 4.4919977
40200.0, 4.498275
40400.0, 4.5045094
40600.0, 4.510703
40800.0, 4.5168552
41000.0, 4.5229673
41200.0, 4.5290375
41400.0, 4.5350685
41600.0, 4.5410595
41800.0, 4.547011
42000.0, 4.5529237
42200.0, 4.558797
42400.0, 4.5646315
42600.0, 4.570428
42800.0, 4.576187
43000.0, 4.5819073
43200.0, 4.587591
43400.0, 4.5932374
43600.0, 4.598847
43800.0, 4.60442
44000.0, 4.609957
44200.0, 4.6154585
44400.0, 4.6209235
44600.0, 4.6263533
44800.0, 4.631749
45000.0, 4.6371083
45200.0, 4.642434
45400.0, 4.6477256
45600.0, 4.652982
45800.0, 4.658206
46000.0, 4.663396
46200.0, 4.668552
46400.0, 4.673676
46600.0, 4.6787663
46800.0, 4.683825
47000.0, 4.6888504
47200.0, 4.6938457
47400.0, 4.6988072
47600.0, 4.7037377
47800.0, 4.7086363
48000.0, 4.7135053
48200.0, 4.7183423
48400.0, 4.723149
48600.0, 4.7279243
48800.0, 4.732671
49000.0, 4.7373867
49200.0, 4.7420726
49400.0, 4.7467294
49600.0, 4.751356
49800.0, 4.7559547
50000.0, 4.760524
50200.0, 4.7650642
50400.0, 4.769576
50600.0, 4.77406
50800.0, 4.778516
51000.0, 4.7829432
51200.0, 4.7873425
51400.0, 4.7917147
51600.0, 4.79606
51800.0, 4.8003774
52000.0, 4.804669
52200.0, 4.808933
52400.0, 4.8131704
52600.0, 4.8173814
52800.0, 4.8215666
53000.0, 4.8257256
53200.0, 4.8298583
53400.0, 4.833966
53600.0, 4.8380485
53800.0, 4.8421044
54000.0, 4.8461356
54200.0, 4.850142
54400.0, 4.8541245
54600.0, 4.858081
54800.0, 4.862014
55000.0, 4.8659225
55200.0, 4.869807
55400.0, 4.873666
55600.0, 4.8775024
55800.0, 4.8813148
56000.0, 4.885103
56200.0, 4.8888702
56400.0, 4.8926125
56600.0, 4.896332
56800.0, 4.900028
57000.0, 4.9037013
57200.0, 4.907353
57400.0, 4.910981
57600.0, 4.9145875
57800.0, 4.918173
58000.0, 4.9217343
58200.0, 4.925275
58400.0, 4.928793
58600.0, 4.93229
58800.0, 4.9357657
59000.0, 4.9392204
59200.0, 4.9426537
59400.0, 4.946065
59600.0, 4.9494567
59800.0, 4.952827
60000.0, 4.9561768
60200.0, 4.9595056
60400.0, 4.962815
60600.0, 4.9661026
60800.0, 4.969372
61000.0, 4.97262
61200.0, 4.975848
61400.0, 4.979058
61600.0, 4.982247
61800.0, 4.9854164
62000.0, 4.9885674
62200.0, 4.991698
62400.0, 4.9948096
62600.0, 4.9979024
62800.0, 5.000977
63000.0, 5.004032
63200.0, 5.007069
63400.0, 5.010086
63600.0, 5.013086
63800.0, 5.016068
64000.0, 5.0190306
64200.0, 5.0219755
64400.0, 5.024903
64600.0, 5.027812
64800.0, 5.0307026
65000.0, 5.033577
65200.0, 5.036433
65400.0, 5.039271
65600.0, 5.042093
65800.0, 5.0448966
66000.0, 5.0476837
66200.0, 5.050453
66400.0, 5.0532064
66600.0, 5.055943
66800.0, 5.0586624
67000.0, 5.061364
67200.0, 5.0640507
67400.0, 5.06672
67600.0, 5.069374
67800.0, 5.072011
68000.0, 5.0746326
68200.0, 5.0772376
68400.0, 5.079827
68600.0, 5.0824
68800.0, 5.0849566
69000.0, 5.0874987
69200.0, 5.090025
69400.0, 5.092536
69600.0, 5.095031
69800.0, 5.0975113
70000.0, 5.099976
70200.0, 5.1024256
70400.0, 5.1048603
70600.0, 5.1072793
70800.0, 5.109685
71000.0, 5.1120744
71200.0, 5.11445
71400.0, 5.116811
71600.0, 5.119157
71800.0, 5.1214886
72000.0, 5.123806
72200.0, 5.126108
72400.0, 5.1283975
72600.0, 5.1306725
72800.0, 5.132932
73000.0, 5.135179
73200.0, 5.1374125
73400.0, 5.1396313
73600.0, 5.1418366
73800.0, 5.1440277
74000.0, 5.146206
74200.0, 5.14837
74400.0, 5.1505213
74600.0, 5.1526585
74800.0, 5.1547832
75000.0, 5.156895
75200.0, 5.158993
75400.0, 5.1610775
75600.0, 5.16315
75800.0, 5.165209
76000.0, 5.167255
76200.0, 5.169289
76400.0, 5.1713104
76600.0, 5.173319
76800.0, 5.1753144
77000.0, 5.177298
77200.0, 5.1792684
77400.0, 5.181227
77600.0, 5.1831737
77800.0, 5.1851068
78000.0, 5.187029
78200.0, 5.1889386
78400.0, 5.190836
78600.0, 5.192723
78800.0, 5.1945963
79000.0, 5.1964593
79200.0, 5.198309
79400.0, 5.2001476
79600.0, 5.2019744
79800.0, 5.2037897
80000.0, 5.2055936
80200.0, 5.2073865
80400.0, 5.209168
80600.0, 5.210938
80800.0, 5.212697
81000.0, 5.214444
81200.0, 5.2161803
81400.0, 5.2179055
81600.0, 5.219619
81800.0, 5.2213225
82000.0, 5.2230153
82200.0, 5.2246966
82400.0, 5.2263675
82600.0, 5.228027
82800.0, 5.2296767
83000.0, 5.231315
83200.0, 5.232943
83400.0, 5.234561
83600.0, 5.2361684
83800.0, 5.2377653
84000.0, 5.2393517
84200.0, 5.240928
84400.0, 5.2424936
84600.0, 5.244049
84800.0, 5.2455955
85000.0, 5.247131
85200.0, 5.2486563
85400.0, 5.2501717
85600.0, 5.251678
85800.0, 5.2531734
86000.0, 5.2546597
86200.0, 5.256136
86400.0, 5.2576027
86600.0, 5.2590604
86800.0, 5.2605066
87000.0, 5.261945
87200.0, 5.263373
87400.0, 5.2647924
87600.0, 5.2662015
87800.0, 5.267601
88000.0, 5.2689924
88200.0, 5.2703743
88400.0, 5.2717457
88600.0, 5.27311
88800.0, 5.2744627
89000.0, 5.275808
89200.0, 5.277144
89400.0, 5.27847
89600.0, 5.279789
89800.0, 5.2810974
90000.0, 5.2823977
90200.0, 5.2836895
90400.0, 5.284971
90600.0, 5.2862463
90800.0, 5.2875113
91000.0, 5.288768
91200.0, 5.2900157
91400.0, 5.2912555
91600.0, 5.292486
91800.0, 5.293709
92000.0, 5.294923
92200.0, 5.2961273
92400.0, 5.297325
92600.0, 5.298516
92800.0, 5.2996955
93000.0, 5.300869
93200.0, 5.3020334
93400.0, 5.3031898
93600.0, 5.3043385
93800.0, 5.305478
94000.0, 5.30661
94200.0, 5.307735
94400.0, 5.308852
94600.0, 5.309961
94800.0, 5.3110614
95000.0, 5.312154
95200.0, 5.3132386
95400.0, 5.314316
95600.0, 5.315386
95800.0, 5.3164477
96000.0, 5.317502
96200.0, 5.318549
96400.0, 5.3195896
96600.0, 5.320621
96800.0, 5.3216453
97000.0, 5.322663
97200.0, 5.3236713
97400.0, 5.3246746
97600.0, 5.325669
97800.0, 5.326657
98000.0, 5.327637
98200.0, 5.3286104
98400.0, 5.3295755
98600.0, 5.3305354
98800.0, 5.3314867
99000.0, 5.3324313
99200.0, 5.3333693
99400.0, 5.3342996
99600.0, 5.3352237
99800.0, 5.33614
100000.0, 5.3370495
